{
  "AcquisitionMatrixPE": 116,
  "AcquisitionNumber": 1,
  "AcquisitionTime": "18:31:35.610000",
  "BandwidthPerPixelPhaseEncode": 18.539,
  "BaseResolution": 116,
  "BodyPartExamined": "HEAD",
  "ConsistencyInfo": "N4_VD13D_LATEST_20130810",
  "ConversionSoftware": "dcm2niix",
  "ConversionSoftwareVersion": "v1.0.20190410  (JP2:OpenJPEG) (JP-LS:CharLS) GCC5.5.0",
  "DerivedVendorReportedEchoSpacing": 0.000930006,
  "DeviceSerialNumber": "66014",
  "DwellTime": 3e-06,
  "EchoTime": 0.03,
  "EchoTrainLength": 50,
  "EffectiveEchoSpacing": 0.000465003,
  "FlipAngle": 81,
  "ImageComments": "Unaliased_MB3_PE4",
  "ImageOrientationPatientDICOM": [0.999049, -0.0410862, 0.0145846, 0.0418726, 0.99741, -0.0584866],
  "ImageType": [
    "ORIGINAL",
    "PRIMARY",
    "M",
    "MB",
    "ND",
    "MOSAIC"
],
  "ImagingFrequency": 123.261,
  "InPlanePhaseEncodingDirectionDICOM": "COL",
  "InstitutionAddress": "Yiheyuan_Road_5_Beijing_Haidian_CN_100871",
  "InstitutionName": "Peking_University",
  "InstitutionalDepartmentName": "Department",
  "MRAcquisitionType": "2D",
  "MagneticFieldStrength": 3,
  "Manufacturer": "Siemens",
  "ManufacturersModelName": "Prisma",
  "Modality": "MR",
  "MultibandAccelerationFactor": 3,
  "ParallelReductionFactorInPlane": 2,
  "PartialFourier": 0.875,
  "PatientPosition": "HFS",
  "PercentPhaseFOV": 100,
  "PhaseEncodingDirection": "j-",
  "PhaseEncodingSteps": 101,
  "PhaseResolution": 1,
  "PixelBandwidth": 1435,
  "ProcedureStepDescription": "Research_Projects_64CH",
  "ProtocolName": "mbep2d_bold_MB3_test1",
  "PulseSequenceDetails": "%CustomerSeq%_cmrr_mbep2d_bold",
  "ReceiveCoilActiveElements": "HC1-6",
  "ReceiveCoilName": "HeadNeck_64",
  "ReconMatrixPE": 116,
  "RefLinesPE": 44,
  "RepetitionTime": 2,
  "SAR": 0.0493593,
  "ScanOptions": "PFP_FS",
  "ScanningSequence": "EP",
  "SequenceName": "epfid2d1_116",
  "SequenceVariant": "SK_SS",
  "SeriesDescription": "mbep2d_bold_MB3_test1",
  "SeriesNumber": 6,
  "ShimSetting": [-3462, -2098, -1954, 354, -66, -41, 24, 15],
  "SliceThickness": 1.9,
  "SliceTiming": [0, 0.9075, 1.815, 0.7425, 1.65, 0.5775, 1.485, 0.4125, 1.32, 0.2475, 1.155, 0.0825, 0.99, 1.8975, 0.825, 1.7325, 0.66, 1.5675, 0.495, 1.4025, 0.33, 1.2375, 0.165, 1.0725, 0, 0.9075, 1.815, 0.7425, 1.65, 0.5775, 1.485, 0.4125, 1.32, 0.2475, 1.155, 0.0825, 0.99, 1.8975, 0.825, 1.7325, 0.66, 1.5675, 0.495, 1.4025, 0.33, 1.2375, 0.165, 1.0725, 0, 0.9075, 1.815, 0.7425, 1.65, 0.5775, 1.485, 0.4125, 1.32, 0.2475, 1.155, 0.0825, 0.99, 1.8975, 0.825, 1.7325, 0.66, 1.5675, 0.495, 1.4025, 0.33, 1.2375, 0.165, 1.0725],
  "SoftwareVersions": "syngo_MR_D13D",
  "SpacingBetweenSlices": 1.9,
  "StationName": "AWP66014",
  "TaskName": "retrieval",
  "TotalReadoutTime": 0.0534753,
  "TxRefAmp": 218.15,
  "WipMemBlock": "1797127e-5c85-4456-85ef-069f4e781c5c||Sequence: vd13d/master r/0735857; Nov 19 2014 09:21:40 by eja",
  "dcmmeta_affine": [
    [-1.8947484493255615, 0.07941356301307678, 0.023073256015777588, 104.6612319946289],
    [0.07792213559150696, 1.891638994216919, -0.11217924952507019, -99.04337310791016],
    [0.027660435065627098, 0.1109229102730751, 1.8965450525283813, -68.83907318115234],
    [0.0, 0.0, 0.0, 1.0]
],
  "dcmmeta_reorient_transform": [
    [0.0, -1.0, 0.0, 115.0],
    [1.0, 0.0, 0.0, 0.0],
    [0.0, 0.0, 1.0, 0.0],
    [0.0, 0.0, 0.0, 1.0]
],
  "dcmmeta_shape": [116, 116, 72, 289],
  "dcmmeta_slice_dim": 2,
  "dcmmeta_version": 0.6,
  "global": {
    "const": {
      "AcquisitionMatrix": [116, 0, 0, 116],
      "AngioFlag": "N",
      "BitsAllocated": 16,
      "BitsStored": 16,
      "BodyPartExamined": "HEAD",
      "Columns": 1044,
      "EchoNumbers": 1,
      "EchoTime": 30.0,
      "EchoTrainLength": 50,
      "FlipAngle": 81.0,
      "HighBit": 15,
      "ImageOrientationPatient": [0.9990491542256, -0.0410862153375, 0.01458459291005, 0.0418726054805, 0.9974096447035, -0.0584866272126],
      "ImagePositionPatient": [-1029.8049393979, -960.05973096843, -17.449148727028],
      "ImageType": [
        "ORIGINAL",
        "PRIMARY",
        "M",
        "MB",
        "ND",
        "MOSAIC"
],
      "ImagedNucleus": "1H",
      "ImagingFrequency": 123.260601,
      "InPlanePhaseEncodingDirection": "COL",
      "LargestImagePixelValue": 65535,
      "MRAcquisitionType": "2D",
      "MagneticFieldStrength": 3.0,
      "Manufacturer": "SIEMENS",
      "ManufacturerModelName": "Prisma",
      "Modality": "MR",
      "NumberOfAverages": 1.0,
      "NumberOfPhaseEncodingSteps": 101,
      "PercentPhaseFieldOfView": 100.0,
      "PercentSampling": 100.0,
      "PerformedProcedureStepStartTime": "181933.349000",
      "PhotometricInterpretation": "MONOCHROME2",
      "PixelBandwidth": 1435.0,
      "PixelRepresentation": 0,
      "PixelSpacing": [1.8965517282486, 1.8965517282486],
      "ProtocolName": "mbep2d_bold_MB3_test1",
      "RepetitionTime": 2000.0,
      "Rows": 1044,
      "SAR": 0.04935929206217,
      "SamplesPerPixel": 1,
      "ScanOptions": [
        "PFP",
        "FS"
],
      "ScanningSequence": "EP",
      "SequenceName": "epfid2d1_116",
      "SequenceVariant": [
        "SK",
        "SS"
],
      "SeriesDescription": "mbep2d_bold_MB3_test1",
      "SeriesNumber": 6,
      "SeriesTime": "183150.668000",
      "SliceLocation": -61.595223330878,
      "SliceThickness": 1.8999999761581,
      "SmallestImagePixelValue": 0,
      "SoftwareVersions": "syngo MR D13D",
      "SpacingBetweenSlices": 1.8999999548544,
      "SpecificCharacterSet": "ISO_IR 100",
      "StudyID": "1",
      "StudyTime": "181933.274000",
      "TimeOfLastCalibration": ["123723.000000", "123723.000000"],
      "TransmitCoilName": "Body",
      "VariableFlipAngleFlag": "N",
      "WindowCenterWidthExplanation": "Algo1",
      "dBdt": 0.0},
    "slices": {}
  },
  "time": {
    "samples": {
      "AcquisitionNumber": [1, 2, 3, 4, 5, 6, 7, 8, 9, 10, 11, 12, 13, 14, 15, 16, 17, 18, 19, 20, 21, 22, 23, 24, 25, 26, 27, 28, 29, 30, 31, 32, 33, 34, 35, 36, 37, 38, 39, 40, 41, 42, 43, 44, 45, 46, 47, 48, 49, 50, 51, 52, 53, 54, 55, 56, 57, 58, 59, 60, 61, 62, 63, 64, 65, 66, 67, 68, 69, 70, 71, 72, 73, 74, 75, 76, 77, 78, 79, 80, 81, 82, 83, 84, 85, 86, 87, 88, 89, 90, 91, 92, 93, 94, 95, 96, 97, 98, 99, 100, 101, 102, 103, 104, 105, 106, 107, 108, 109, 110, 111, 112, 113, 114, 115, 116, 117, 118, 119, 120, 121, 122, 123, 124, 125, 126, 127, 128, 129, 130, 131, 132, 133, 134, 135, 136, 137, 138, 139, 140, 141, 142, 143, 144, 145, 146, 147, 148, 149, 150, 151, 152, 153, 154, 155, 156, 157, 158, 159, 160, 161, 162, 163, 164, 165, 166, 167, 168, 169, 170, 171, 172, 173, 174, 175, 176, 177, 178, 179, 180, 181, 182, 183, 184, 185, 186, 187, 188, 189, 190, 191, 192, 193, 194, 195, 196, 197, 198, 199, 200, 201, 202, 203, 204, 205, 206, 207, 208, 209, 210, 211, 212, 213, 214, 215, 216, 217, 218, 219, 220, 221, 222, 223, 224, 225, 226, 227, 228, 229, 230, 231, 232, 233, 234, 235, 236, 237, 238, 239, 240, 241, 242, 243, 244, 245, 246, 247, 248, 249, 250, 251, 252, 253, 254, 255, 256, 257, 258, 259, 260, 261, 262, 263, 264, 265, 266, 267, 268, 269, 270, 271, 272, 273, 274, 275, 276, 277, 278, 279, 280, 281, 282, 283, 284, 285, 286, 287, 288, 289],
      "AcquisitionTime": ["183135.610000", "183137.610000", "183139.610000", "183141.610000", "183143.610000", "183145.610000", "183147.610000", "183149.610000", "183151.610000", "183153.610000", "183155.610000", "183157.610000", "183159.610000", "183201.610000", "183203.610000", "183205.610000", "183207.610000", "183209.610000", "183211.610000", "183213.610000", "183215.610000", "183217.610000", "183219.610000", "183221.610000", "183223.610000", "183225.610000", "183227.610000", "183229.610000", "183231.610000", "183233.610000", "183235.610000", "183237.610000", "183239.610000", "183241.610000", "183243.610000", "183245.610000", "183247.610000", "183249.610000", "183251.610000", "183253.610000", "183255.610000", "183257.610000", "183259.610000", "183301.610000", "183303.610000", "183305.610000", "183307.610000", "183309.610000", "183311.610000", "183313.610000", "183315.610000", "183317.610000", "183319.610000", "183321.610000", "183323.610000", "183325.610000", "183327.610000", "183329.610000", "183331.610000", "183333.610000", "183335.610000", "183337.610000", "183339.610000", "183341.610000", "183343.610000", "183345.610000", "183347.610000", "183349.610000", "183351.610000", "183353.610000", "183355.610000", "183357.610000", "183359.610000", "183401.610000", "183403.610000", "183405.610000", "183407.610000", "183409.610000", "183411.610000", "183413.610000", "183415.610000", "183417.610000", "183419.610000", "183421.610000", "183423.610000", "183425.610000", "183427.610000", "183429.610000", "183431.610000", "183433.610000", "183435.610000", "183437.610000", "183439.610000", "183441.610000", "183443.610000", "183445.610000", "183447.610000", "183449.610000", "183451.610000", "183453.610000", "183455.610000", "183457.610000", "183459.610000", "183501.610000", "183503.610000", "183505.610000", "183507.610000", "183509.610000", "183511.610000", "183513.610000", "183515.610000", "183517.610000", "183519.610000", "183521.610000", "183523.610000", "183525.610000", "183527.610000", "183529.610000", "183531.610000", "183533.610000", "183535.610000", "183537.610000", "183539.610000", "183541.610000", "183543.610000", "183545.610000", "183547.610000", "183549.610000", "183551.610000", "183553.610000", "183555.610000", "183557.610000", "183559.610000", "183601.610000", "183603.610000", "183605.610000", "183607.610000", "183609.610000", "183611.610000", "183613.610000", "183615.610000", "183617.610000", "183619.610000", "183621.610000", "183623.610000", "183625.612500", "183627.612500", "183629.612500", "183631.612500", "183633.612500", "183635.612500", "183637.612500", "183639.612500", "183641.612500", "183643.612500", "183645.612500", "183647.612500", "183649.612500", "183651.612500", "183653.612500", "183655.612500", "183657.612500", "183659.612500", "183701.612500", "183703.612500", "183705.612500", "183707.612500", "183709.612500", "183711.612500", "183713.612500", "183715.612500", "183717.612500", "183719.612500", "183721.612500", "183723.612500", "183725.612500", "183727.612500", "183729.612500", "183731.612500", "183733.612500", "183735.612500", "183737.612500", "183739.612500", "183741.612500", "183743.612500", "183745.612500", "183747.612500", "183749.612500", "183751.612500", "183753.612500", "183755.612500", "183757.612500", "183759.612500", "183801.612500", "183803.612500", "183805.612500", "183807.612500", "183809.612500", "183811.612500", "183813.612500", "183815.612500", "183817.612500", "183819.612500", "183821.612500", "183823.612500", "183825.612500", "183827.612500", "183829.612500", "183831.612500", "183833.612500", "183835.612500", "183837.612500", "183839.612500", "183841.612500", "183843.612500", "183845.612500", "183847.612500", "183849.612500", "183851.612500", "183853.612500", "183855.612500", "183857.612500", "183859.612500", "183901.612500", "183903.612500", "183905.612500", "183907.612500", "183909.612500", "183911.612500", "183913.612500", "183915.612500", "183917.612500", "183919.612500", "183921.612500", "183923.612500", "183925.612500", "183927.612500", "183929.612500", "183931.612500", "183933.612500", "183935.612500", "183937.612500", "183939.612500", "183941.612500", "183943.612500", "183945.612500", "183947.612500", "183949.612500", "183951.612500", "183953.612500", "183955.612500", "183957.612500", "183959.612500", "184001.612500", "184003.612500", "184005.612500", "184007.612500", "184009.612500", "184011.612500", "184013.612500", "184015.612500", "184017.612500", "184019.612500", "184021.612500", "184023.612500", "184025.612500", "184027.612500", "184029.612500", "184031.612500", "184033.612500", "184035.612500", "184037.612500", "184039.612500", "184041.612500", "184043.612500", "184045.612500", "184047.612500", "184049.612500", "184051.612500", "184053.612500", "184055.612500", "184057.612500", "184059.612500", "184101.612500", "184103.612500", "184105.612500", "184107.612500", "184109.612500", "184111.612500"],
      "ContentTime": ["183150.674000", "183151.666000", "183152.665000", "183152.669000", "183153.667000", "183153.671000", "183154.666000", "183156.167000", "183158.167000", "183200.165000", "183202.167000", "183204.167000", "183206.167000", "183208.167000", "183210.167000", "183212.166000", "183214.167000", "183216.166000", "183218.167000", "183220.167000", "183222.167000", "183224.168000", "183226.167000", "183228.167000", "183230.167000", "183232.168000", "183234.167000", "183236.167000", "183238.168000", "183240.167000", "183242.167000", "183244.167000", "183246.167000", "183248.167000", "183250.167000", "183252.167000", "183254.168000", "183256.167000", "183258.167000", "183300.167000", "183302.167000", "183304.167000", "183306.167000", "183308.167000", "183310.167000", "183312.166000", "183314.167000", "183316.166000", "183318.166000", "183320.166000", "183322.166000", "183324.166000", "183326.166000", "183328.166000", "183330.166000", "183332.166000", "183334.166000", "183336.166000", "183338.165000", "183340.166000", "183342.165000", "183344.166000", "183346.166000", "183348.166000", "183350.166000", "183352.166000", "183354.166000", "183356.166000", "183358.166000", "183400.166000", "183402.166000", "183404.166000", "183406.166000", "183408.167000", "183410.165000", "183412.167000", "183414.167000", "183416.167000", "183418.167000", "183420.167000", "183422.167000", "183424.167000", "183426.166000", "183428.168000", "183430.167000", "183432.168000", "183434.167000", "183436.167000", "183438.167000", "183440.167000", "183442.167000", "183444.167000", "183446.167000", "183448.167000", "183450.167000", "183452.167000", "183454.167000", "183456.167000", "183458.167000", "183500.167000", "183502.167000", "183504.167000", "183506.167000", "183508.167000", "183510.167000", "183512.167000", "183514.167000", "183516.167000", "183518.167000", "183520.167000", "183522.167000", "183524.167000", "183526.167000", "183528.167000", "183530.167000", "183532.167000", "183534.167000", "183536.168000", "183538.167000", "183540.167000", "183542.168000", "183544.167000", "183546.167000", "183548.167000", "183550.167000", "183552.167000", "183554.167000", "183556.166000", "183558.167000", "183600.167000", "183602.168000", "183604.167000", "183606.167000", "183608.167000", "183610.167000", "183612.167000", "183614.167000", "183616.166000", "183618.166000", "183620.167000", "183622.167000", "183624.167000", "183626.167000", "183628.167000", "183630.167000", "183632.167000", "183634.167000", "183636.167000", "183638.168000", "183640.168000", "183642.167000", "183644.167000", "183646.166000", "183648.167000", "183650.167000", "183652.167000", "183654.167000", "183656.167000", "183658.167000", "183700.167000", "183702.167000", "183704.167000", "183706.167000", "183708.167000", "183710.167000", "183712.167000", "183714.167000", "183716.167000", "183718.166000", "183720.166000", "183722.167000", "183724.167000", "183726.167000", "183728.167000", "183730.168000", "183732.167000", "183734.167000", "183736.167000", "183738.167000", "183740.167000", "183742.166000", "183744.167000", "183746.167000", "183748.167000", "183750.167000", "183752.167000", "183754.167000", "183756.177000", "183758.167000", "183800.167000", "183802.168000", "183804.167000", "183806.167000", "183808.167000", "183810.167000", "183812.167000", "183814.167000", "183816.167000", "183818.168000", "183820.167000", "183822.167000", "183824.167000", "183826.167000", "183828.167000", "183830.167000", "183832.167000", "183834.168000", "183836.167000", "183838.167000", "183840.167000", "183842.167000", "183844.167000", "183846.166000", "183848.167000", "183850.167000", "183852.167000", "183854.167000", "183856.167000", "183858.167000", "183900.167000", "183902.167000", "183904.167000", "183906.168000", "183908.167000", "183910.167000", "183912.167000", "183914.167000", "183916.167000", "183918.167000", "183920.167000", "183922.167000", "183924.168000", "183926.168000", "183928.167000", "183930.167000", "183932.167000", "183934.167000", "183936.167000", "183938.167000", "183940.167000", "183942.167000", "183944.167000", "183946.167000", "183948.167000", "183950.167000", "183952.167000", "183954.167000", "183956.167000", "183958.167000", "184000.168000", "184002.167000", "184004.167000", "184006.167000", "184008.167000", "184010.167000", "184012.167000", "184014.167000", "184016.167000", "184018.168000", "184020.167000", "184022.168000", "184024.167000", "184026.167000", "184028.167000", "184030.167000", "184032.167000", "184034.167000", "184036.167000", "184038.166000", "184040.167000", "184042.167000", "184044.167000", "184046.168000", "184048.167000", "184050.167000", "184052.167000", "184054.167000", "184056.167000", "184058.167000", "184100.168000", "184102.167000", "184104.167000", "184106.168000", "184108.167000", "184110.167000", "184112.167000", "184114.167000", "184116.167000", "184117.759000"],
      "InstanceCreationTime": ["183150.674000", "183151.666000", "183152.665000", "183152.669000", "183153.667000", "183153.671000", "183154.666000", "183156.167000", "183158.167000", "183200.165000", "183202.167000", "183204.167000", "183206.167000", "183208.167000", "183210.167000", "183212.166000", "183214.167000", "183216.166000", "183218.167000", "183220.167000", "183222.167000", "183224.168000", "183226.167000", "183228.167000", "183230.167000", "183232.168000", "183234.167000", "183236.167000", "183238.168000", "183240.167000", "183242.167000", "183244.167000", "183246.167000", "183248.167000", "183250.167000", "183252.167000", "183254.168000", "183256.167000", "183258.167000", "183300.167000", "183302.167000", "183304.167000", "183306.167000", "183308.167000", "183310.167000", "183312.166000", "183314.167000", "183316.166000", "183318.166000", "183320.166000", "183322.166000", "183324.166000", "183326.166000", "183328.166000", "183330.166000", "183332.166000", "183334.166000", "183336.166000", "183338.165000", "183340.166000", "183342.165000", "183344.166000", "183346.166000", "183348.166000", "183350.166000", "183352.166000", "183354.166000", "183356.166000", "183358.166000", "183400.166000", "183402.166000", "183404.166000", "183406.166000", "183408.167000", "183410.165000", "183412.167000", "183414.167000", "183416.167000", "183418.167000", "183420.167000", "183422.167000", "183424.167000", "183426.166000", "183428.168000", "183430.167000", "183432.168000", "183434.167000", "183436.167000", "183438.167000", "183440.167000", "183442.167000", "183444.167000", "183446.167000", "183448.167000", "183450.167000", "183452.167000", "183454.167000", "183456.167000", "183458.167000", "183500.167000", "183502.167000", "183504.167000", "183506.167000", "183508.167000", "183510.167000", "183512.167000", "183514.167000", "183516.167000", "183518.167000", "183520.167000", "183522.167000", "183524.167000", "183526.167000", "183528.167000", "183530.167000", "183532.167000", "183534.167000", "183536.168000", "183538.167000", "183540.167000", "183542.168000", "183544.167000", "183546.167000", "183548.167000", "183550.167000", "183552.167000", "183554.167000", "183556.166000", "183558.167000", "183600.167000", "183602.168000", "183604.167000", "183606.167000", "183608.167000", "183610.167000", "183612.167000", "183614.167000", "183616.166000", "183618.166000", "183620.167000", "183622.167000", "183624.167000", "183626.167000", "183628.167000", "183630.167000", "183632.167000", "183634.167000", "183636.167000", "183638.168000", "183640.168000", "183642.167000", "183644.167000", "183646.166000", "183648.167000", "183650.167000", "183652.167000", "183654.167000", "183656.167000", "183658.167000", "183700.167000", "183702.167000", "183704.167000", "183706.167000", "183708.167000", "183710.167000", "183712.167000", "183714.167000", "183716.167000", "183718.166000", "183720.166000", "183722.167000", "183724.167000", "183726.167000", "183728.167000", "183730.168000", "183732.167000", "183734.167000", "183736.167000", "183738.167000", "183740.167000", "183742.166000", "183744.167000", "183746.167000", "183748.167000", "183750.167000", "183752.167000", "183754.167000", "183756.177000", "183758.167000", "183800.167000", "183802.168000", "183804.167000", "183806.167000", "183808.167000", "183810.167000", "183812.167000", "183814.167000", "183816.167000", "183818.168000", "183820.167000", "183822.167000", "183824.167000", "183826.167000", "183828.167000", "183830.167000", "183832.167000", "183834.168000", "183836.167000", "183838.167000", "183840.167000", "183842.167000", "183844.167000", "183846.166000", "183848.167000", "183850.167000", "183852.167000", "183854.167000", "183856.167000", "183858.167000", "183900.167000", "183902.167000", "183904.167000", "183906.168000", "183908.167000", "183910.167000", "183912.167000", "183914.167000", "183916.167000", "183918.167000", "183920.167000", "183922.167000", "183924.168000", "183926.168000", "183928.167000", "183930.167000", "183932.167000", "183934.167000", "183936.167000", "183938.167000", "183940.167000", "183942.167000", "183944.167000", "183946.167000", "183948.167000", "183950.167000", "183952.167000", "183954.167000", "183956.167000", "183958.167000", "184000.168000", "184002.167000", "184004.167000", "184006.167000", "184008.167000", "184010.167000", "184012.167000", "184014.167000", "184016.167000", "184018.168000", "184020.167000", "184022.168000", "184024.167000", "184026.167000", "184028.167000", "184030.167000", "184032.167000", "184034.167000", "184036.167000", "184038.166000", "184040.167000", "184042.167000", "184044.167000", "184046.168000", "184048.167000", "184050.167000", "184052.167000", "184054.167000", "184056.167000", "184058.167000", "184100.168000", "184102.167000", "184104.167000", "184106.168000", "184108.167000", "184110.167000", "184112.167000", "184114.167000", "184116.167000", "184117.759000"],
      "InstanceNumber": [1, 2, 3, 4, 5, 6, 7, 8, 9, 10, 11, 12, 13, 14, 15, 16, 17, 18, 19, 20, 21, 22, 23, 24, 25, 26, 27, 28, 29, 30, 31, 32, 33, 34, 35, 36, 37, 38, 39, 40, 41, 42, 43, 44, 45, 46, 47, 48, 49, 50, 51, 52, 53, 54, 55, 56, 57, 58, 59, 60, 61, 62, 63, 64, 65, 66, 67, 68, 69, 70, 71, 72, 73, 74, 75, 76, 77, 78, 79, 80, 81, 82, 83, 84, 85, 86, 87, 88, 89, 90, 91, 92, 93, 94, 95, 96, 97, 98, 99, 100, 101, 102, 103, 104, 105, 106, 107, 108, 109, 110, 111, 112, 113, 114, 115, 116, 117, 118, 119, 120, 121, 122, 123, 124, 125, 126, 127, 128, 129, 130, 131, 132, 133, 134, 135, 136, 137, 138, 139, 140, 141, 142, 143, 144, 145, 146, 147, 148, 149, 150, 151, 152, 153, 154, 155, 156, 157, 158, 159, 160, 161, 162, 163, 164, 165, 166, 167, 168, 169, 170, 171, 172, 173, 174, 175, 176, 177, 178, 179, 180, 181, 182, 183, 184, 185, 186, 187, 188, 189, 190, 191, 192, 193, 194, 195, 196, 197, 198, 199, 200, 201, 202, 203, 204, 205, 206, 207, 208, 209, 210, 211, 212, 213, 214, 215, 216, 217, 218, 219, 220, 221, 222, 223, 224, 225, 226, 227, 228, 229, 230, 231, 232, 233, 234, 235, 236, 237, 238, 239, 240, 241, 242, 243, 244, 245, 246, 247, 248, 249, 250, 251, 252, 253, 254, 255, 256, 257, 258, 259, 260, 261, 262, 263, 264, 265, 266, 267, 268, 269, 270, 271, 272, 273, 274, 275, 276, 277, 278, 279, 280, 281, 282, 283, 284, 285, 286, 287, 288, 289],
      "WindowCenter": [16545.0, 16559.0, 16547.0, 16541.0, 16549.0, 16552.0, 16550.0, 16519.0, 16507.0, 16508.0, 16515.0, 16514.0, 16516.0, 16525.0, 16517.0, 16491.0, 16502.0, 16492.0, 16500.0, 16495.0, 16500.0, 16501.0, 16492.0, 16505.0, 16502.0, 16489.0, 16500.0, 16497.0, 16502.0, 16520.0, 16519.0, 16513.0, 16492.0, 16498.0, 16480.0, 16505.0, 16498.0, 16502.0, 16496.0, 16494.0, 16493.0, 16505.0, 16511.0, 16499.0, 16488.0, 16503.0, 16495.0, 16519.0, 16517.0, 16520.0, 16512.0, 16513.0, 16512.0, 16516.0, 16532.0, 16518.0, 16515.0, 16509.0, 16507.0, 16526.0, 16528.0, 16526.0, 16523.0, 16498.0, 16507.0, 16515.0, 16531.0, 16507.0, 16509.0, 16507.0, 16503.0, 16500.0, 16494.0, 16504.0, 16502.0, 16507.0, 16496.0, 16507.0, 16505.0, 16496.0, 16496.0, 16484.0, 16499.0, 16511.0, 16505.0, 16501.0, 16494.0, 16465.0, 16472.0, 16491.0, 16499.0, 16478.0, 16484.0, 16473.0, 16480.0, 16489.0, 16490.0, 16478.0, 16498.0, 16486.0, 16481.0, 16492.0, 16491.0, 16489.0, 16486.0, 16474.0, 16475.0, 16487.0, 16477.0, 16470.0, 16476.0, 16466.0, 16476.0, 16470.0, 16476.0, 16456.0, 16466.0, 16462.0, 16447.0, 16478.0, 16466.0, 16468.0, 16452.0, 16466.0, 16466.0, 16486.0, 16474.0, 16476.0, 16463.0, 16462.0, 16468.0, 16489.0, 16477.0, 16471.0, 16510.0, 16482.0, 16469.0, 16476.0, 16487.0, 16468.0, 16481.0, 16460.0, 16472.0, 16478.0, 16489.0, 16469.0, 16468.0, 16473.0, 16460.0, 16482.0, 16497.0, 16467.0, 16478.0, 16464.0, 16462.0, 16476.0, 16472.0, 16466.0, 16455.0, 16479.0, 16485.0, 16482.0, 16487.0, 16465.0, 16482.0, 16487.0, 16463.0, 16474.0, 16487.0, 16481.0, 16496.0, 16482.0, 16482.0, 16474.0, 16484.0, 16485.0, 16468.0, 16471.0, 16459.0, 16468.0, 16458.0, 16452.0, 16450.0, 16458.0, 16483.0, 16489.0, 16493.0, 16488.0, 16466.0, 16459.0, 16455.0, 16459.0, 16462.0, 16456.0, 16483.0, 16485.0, 16479.0, 16483.0, 16484.0, 16469.0, 16453.0, 16453.0, 16460.0, 16475.0, 16466.0, 16468.0, 16454.0, 16461.0, 16469.0, 16471.0, 16467.0, 16470.0, 16461.0, 16456.0, 16464.0, 16467.0, 16457.0, 16442.0, 16483.0, 16482.0, 16479.0, 16470.0, 16470.0, 16472.0, 16477.0, 16460.0, 16469.0, 16462.0, 16470.0, 16458.0, 16462.0, 16462.0, 16460.0, 16484.0, 16494.0, 16473.0, 16473.0, 16462.0, 16455.0, 16474.0, 16477.0, 16477.0, 16472.0, 16483.0, 16490.0, 16484.0, 16481.0, 16459.0, 16474.0, 16469.0, 16483.0, 16497.0, 16480.0, 16470.0, 16484.0, 16478.0, 16467.0, 16492.0, 16486.0, 16471.0, 16483.0, 16475.0, 16485.0, 16489.0, 16491.0, 16478.0, 16510.0, 16495.0, 16470.0, 16485.0, 16478.0, 16480.0, 16500.0, 16484.0, 16481.0, 16480.0, 16488.0, 16481.0, 16478.0, 16463.0, 16458.0, 16481.0, 16481.0, 16490.0, 16495.0, 16472.0, 16468.0, 16467.0, 16467.0],
      "WindowWidth": [46153.0, 46136.0, 46271.0, 46280.0, 46179.0, 46157.0, 46129.0, 46009.0, 46000.0, 45987.0, 45967.0, 46021.0, 46102.0, 46109.0, 46063.0, 46080.0, 46049.0, 46069.0, 46088.0, 46059.0, 46035.0, 45997.0, 46014.0, 46066.0, 46078.0, 46052.0, 46036.0, 46034.0, 46076.0, 46106.0, 46051.0, 46019.0, 46043.0, 45981.0, 45977.0, 46000.0, 46060.0, 46025.0, 46017.0, 46043.0, 46042.0, 46039.0, 46029.0, 46034.0, 46039.0, 45996.0, 46002.0, 46036.0, 46036.0, 46026.0, 46032.0, 46032.0, 46047.0, 46105.0, 46091.0, 46024.0, 46034.0, 46069.0, 46040.0, 46044.0, 46048.0, 46045.0, 46043.0, 46020.0, 46000.0, 46048.0, 45995.0, 45976.0, 46018.0, 45977.0, 45970.0, 45955.0, 45951.0, 45973.0, 45960.0, 45988.0, 45964.0, 45988.0, 45987.0, 45954.0, 45954.0, 46034.0, 46073.0, 46058.0, 46039.0, 45982.0, 45976.0, 45964.0, 45957.0, 46000.0, 45994.0, 45991.0, 46047.0, 46024.0, 45987.0, 46023.0, 46037.0, 46013.0, 46002.0, 45979.0, 45987.0, 45997.0, 46010.0, 45983.0, 45966.0, 45944.0, 45956.0, 45954.0, 45946.0, 45929.0, 45933.0, 45939.0, 45945.0, 45955.0, 45933.0, 45957.0, 45967.0, 45948.0, 45947.0, 45936.0, 45914.0, 45848.0, 45837.0, 45846.0, 45886.0, 45918.0, 45908.0, 45856.0, 45872.0, 45858.0, 45875.0, 45882.0, 45869.0, 45850.0, 45872.0, 45888.0, 45876.0, 45910.0, 45920.0, 45915.0, 45861.0, 45896.0, 45866.0, 45897.0, 45894.0, 45878.0, 45879.0, 45908.0, 45936.0, 45928.0, 45954.0, 45969.0, 45937.0, 45912.0, 45909.0, 45897.0, 45894.0, 45902.0, 45920.0, 45923.0, 45956.0, 45982.0, 45972.0, 45941.0, 45914.0, 45890.0, 45924.0, 45920.0, 45891.0, 45887.0, 45926.0, 45915.0, 45899.0, 45922.0, 45943.0, 45917.0, 45903.0, 45878.0, 45905.0, 45861.0, 45828.0, 45823.0, 45861.0, 45882.0, 45981.0, 45947.0, 45936.0, 45917.0, 45886.0, 45852.0, 45850.0, 45866.0, 45856.0, 45851.0, 45888.0, 45916.0, 45978.0, 46008.0, 45955.0, 45890.0, 45915.0, 45901.0, 45972.0, 45958.0, 45910.0, 45887.0, 45917.0, 45988.0, 45941.0, 45903.0, 45900.0, 45890.0, 45909.0, 45890.0, 45830.0, 45795.0, 45773.0, 45787.0, 45796.0, 45820.0, 45844.0, 45892.0, 45931.0, 45932.0, 45935.0, 45921.0, 45914.0, 45924.0, 45917.0, 45933.0, 45936.0, 45909.0, 45906.0, 45928.0, 45951.0, 45933.0, 45905.0, 45855.0, 45877.0, 45867.0, 45896.0, 45963.0, 45972.0, 45965.0, 45932.0, 45942.0, 45911.0, 45867.0, 45854.0, 45874.0, 45941.0, 45966.0, 45938.0, 45875.0, 45861.0, 45895.0, 45966.0, 46001.0, 45941.0, 45904.0, 45954.0, 46015.0, 45997.0, 45974.0, 45934.0, 45923.0, 45899.0, 45897.0, 45915.0, 45957.0, 45965.0, 45938.0, 45956.0, 45953.0, 45965.0, 45951.0, 45931.0, 45927.0, 45963.0, 45964.0, 45958.0, 45953.0, 45952.0, 45931.0, 45908.0, 45890.0, 45913.0, 45915.0, 45901.0]
    },
    "slices": {}
  }
}