{
  "AcquisitionMatrixPE": 116,
  "AcquisitionNumber": 1,
  "AcquisitionTime": "18:42:9.462500",
  "BandwidthPerPixelPhaseEncode": 18.539,
  "BaseResolution": 116,
  "BodyPartExamined": "HEAD",
  "ConsistencyInfo": "N4_VD13D_LATEST_20130810",
  "ConversionSoftware": "dcm2niix",
  "ConversionSoftwareVersion": "v1.0.20190410  (JP2:OpenJPEG) (JP-LS:CharLS) GCC5.5.0",
  "DerivedVendorReportedEchoSpacing": 0.000930006,
  "DeviceSerialNumber": "66014",
  "DwellTime": 3e-06,
  "EchoTime": 0.03,
  "EchoTrainLength": 50,
  "EffectiveEchoSpacing": 0.000465003,
  "FlipAngle": 81,
  "ImageComments": "Unaliased_MB3_PE4",
  "ImageOrientationPatientDICOM": [0.999049, -0.0410862, 0.0145846, 0.0418726, 0.99741, -0.0584866],
  "ImageType": [
    "ORIGINAL",
    "PRIMARY",
    "M",
    "MB",
    "ND",
    "MOSAIC"
],
  "ImagingFrequency": 123.261,
  "InPlanePhaseEncodingDirectionDICOM": "COL",
  "InstitutionAddress": "Yiheyuan_Road_5_Beijing_Haidian_CN_100871",
  "InstitutionName": "Peking_University",
  "InstitutionalDepartmentName": "Department",
  "MRAcquisitionType": "2D",
  "MagneticFieldStrength": 3,
  "Manufacturer": "Siemens",
  "ManufacturersModelName": "Prisma",
  "Modality": "MR",
  "MultibandAccelerationFactor": 3,
  "ParallelReductionFactorInPlane": 2,
  "PartialFourier": 0.875,
  "PatientPosition": "HFS",
  "PercentPhaseFOV": 100,
  "PhaseEncodingDirection": "j-",
  "PhaseEncodingSteps": 101,
  "PhaseResolution": 1,
  "PixelBandwidth": 1435,
  "ProcedureStepDescription": "Research_Projects_64CH",
  "ProtocolName": "mbep2d_bold_MB3_test2",
  "PulseSequenceDetails": "%CustomerSeq%_cmrr_mbep2d_bold",
  "ReceiveCoilActiveElements": "HC1-6",
  "ReceiveCoilName": "HeadNeck_64",
  "ReconMatrixPE": 116,
  "RefLinesPE": 44,
  "RepetitionTime": 2,
  "SAR": 0.0493593,
  "ScanOptions": "PFP_FS",
  "ScanningSequence": "EP",
  "SequenceName": "epfid2d1_116",
  "SequenceVariant": "SK_SS",
  "SeriesDescription": "mbep2d_bold_MB3_test2",
  "SeriesNumber": 7,
  "ShimSetting": [-3462, -2098, -1954, 354, -66, -41, 24, 15],
  "SliceThickness": 1.9,
  "SliceTiming": [0, 0.9075, 1.815, 0.7425, 1.65, 0.5775, 1.485, 0.4125, 1.32, 0.2475, 1.155, 0.0825, 0.99, 1.8975, 0.825, 1.7325, 0.66, 1.5675, 0.495, 1.4025, 0.33, 1.2375, 0.165, 1.0725, 0, 0.9075, 1.815, 0.7425, 1.65, 0.5775, 1.485, 0.4125, 1.32, 0.2475, 1.155, 0.0825, 0.99, 1.8975, 0.825, 1.7325, 0.66, 1.5675, 0.495, 1.4025, 0.33, 1.2375, 0.165, 1.0725, 0, 0.9075, 1.815, 0.7425, 1.65, 0.5775, 1.485, 0.4125, 1.32, 0.2475, 1.155, 0.0825, 0.99, 1.8975, 0.825, 1.7325, 0.66, 1.5675, 0.495, 1.4025, 0.33, 1.2375, 0.165, 1.0725],
  "SoftwareVersions": "syngo_MR_D13D",
  "SpacingBetweenSlices": 1.9,
  "StationName": "AWP66014",
  "TaskName": "retrieval",
  "TotalReadoutTime": 0.0534753,
  "TxRefAmp": 218.15,
  "WipMemBlock": "2db72972-011d-4bab-a39f-f9b62ab065e2||Sequence: vd13d/master r/0735857; Nov 19 2014 09:21:40 by eja",
  "dcmmeta_affine": [
    [-1.8947484493255615, 0.07941356301307678, 0.023073256015777588, 104.6612319946289],
    [0.07792213559150696, 1.891638994216919, -0.11217924952507019, -99.04337310791016],
    [0.027660435065627098, 0.1109229102730751, 1.8965450525283813, -68.83907318115234],
    [0.0, 0.0, 0.0, 1.0]
],
  "dcmmeta_reorient_transform": [
    [0.0, -1.0, 0.0, 115.0],
    [1.0, 0.0, 0.0, 0.0],
    [0.0, 0.0, 1.0, 0.0],
    [0.0, 0.0, 0.0, 1.0]
],
  "dcmmeta_shape": [116, 116, 72, 289],
  "dcmmeta_slice_dim": 2,
  "dcmmeta_version": 0.6,
  "global": {
    "const": {
      "AcquisitionMatrix": [116, 0, 0, 116],
      "AngioFlag": "N",
      "BitsAllocated": 16,
      "BitsStored": 16,
      "BodyPartExamined": "HEAD",
      "Columns": 1044,
      "EchoNumbers": 1,
      "EchoTime": 30.0,
      "EchoTrainLength": 50,
      "FlipAngle": 81.0,
      "HighBit": 15,
      "ImageOrientationPatient": [0.9990491542256, -0.0410862153375, 0.01458459291005, 0.0418726054805, 0.9974096447035, -0.0584866272126],
      "ImagePositionPatient": [-1029.8049393979, -960.05973096843, -17.449148727028],
      "ImageType": [
        "ORIGINAL",
        "PRIMARY",
        "M",
        "MB",
        "ND",
        "MOSAIC"
],
      "ImagedNucleus": "1H",
      "ImagingFrequency": 123.260603,
      "InPlanePhaseEncodingDirection": "COL",
      "LargestImagePixelValue": 65535,
      "MRAcquisitionType": "2D",
      "MagneticFieldStrength": 3.0,
      "Manufacturer": "SIEMENS",
      "ManufacturerModelName": "Prisma",
      "Modality": "MR",
      "NumberOfAverages": 1.0,
      "NumberOfPhaseEncodingSteps": 101,
      "PercentPhaseFieldOfView": 100.0,
      "PercentSampling": 100.0,
      "PerformedProcedureStepStartTime": "181933.349000",
      "PhotometricInterpretation": "MONOCHROME2",
      "PixelBandwidth": 1435.0,
      "PixelRepresentation": 0,
      "PixelSpacing": [1.8965517282486, 1.8965517282486],
      "ProtocolName": "mbep2d_bold_MB3_test2",
      "RepetitionTime": 2000.0,
      "Rows": 1044,
      "SAR": 0.04935929204461,
      "SamplesPerPixel": 1,
      "ScanOptions": [
        "PFP",
        "FS"
],
      "ScanningSequence": "EP",
      "SequenceName": "epfid2d1_116",
      "SequenceVariant": [
        "SK",
        "SS"
],
      "SeriesDescription": "mbep2d_bold_MB3_test2",
      "SeriesNumber": 7,
      "SeriesTime": "184224.663000",
      "SliceLocation": -61.595223330878,
      "SliceThickness": 1.8999999761581,
      "SmallestImagePixelValue": 0,
      "SoftwareVersions": "syngo MR D13D",
      "SpacingBetweenSlices": 1.8999999548544,
      "SpecificCharacterSet": "ISO_IR 100",
      "StudyID": "1",
      "StudyTime": "181933.274000",
      "TimeOfLastCalibration": ["123723.000000", "123723.000000"],
      "TransmitCoilName": "Body",
      "VariableFlipAngleFlag": "N",
      "WindowCenterWidthExplanation": "Algo1",
      "dBdt": 0.0},
    "slices": {}
  },
  "time": {
    "samples": {
      "AcquisitionNumber": [1, 2, 3, 4, 5, 6, 7, 8, 9, 10, 11, 12, 13, 14, 15, 16, 17, 18, 19, 20, 21, 22, 23, 24, 25, 26, 27, 28, 29, 30, 31, 32, 33, 34, 35, 36, 37, 38, 39, 40, 41, 42, 43, 44, 45, 46, 47, 48, 49, 50, 51, 52, 53, 54, 55, 56, 57, 58, 59, 60, 61, 62, 63, 64, 65, 66, 67, 68, 69, 70, 71, 72, 73, 74, 75, 76, 77, 78, 79, 80, 81, 82, 83, 84, 85, 86, 87, 88, 89, 90, 91, 92, 93, 94, 95, 96, 97, 98, 99, 100, 101, 102, 103, 104, 105, 106, 107, 108, 109, 110, 111, 112, 113, 114, 115, 116, 117, 118, 119, 120, 121, 122, 123, 124, 125, 126, 127, 128, 129, 130, 131, 132, 133, 134, 135, 136, 137, 138, 139, 140, 141, 142, 143, 144, 145, 146, 147, 148, 149, 150, 151, 152, 153, 154, 155, 156, 157, 158, 159, 160, 161, 162, 163, 164, 165, 166, 167, 168, 169, 170, 171, 172, 173, 174, 175, 176, 177, 178, 179, 180, 181, 182, 183, 184, 185, 186, 187, 188, 189, 190, 191, 192, 193, 194, 195, 196, 197, 198, 199, 200, 201, 202, 203, 204, 205, 206, 207, 208, 209, 210, 211, 212, 213, 214, 215, 216, 217, 218, 219, 220, 221, 222, 223, 224, 225, 226, 227, 228, 229, 230, 231, 232, 233, 234, 235, 236, 237, 238, 239, 240, 241, 242, 243, 244, 245, 246, 247, 248, 249, 250, 251, 252, 253, 254, 255, 256, 257, 258, 259, 260, 261, 262, 263, 264, 265, 266, 267, 268, 269, 270, 271, 272, 273, 274, 275, 276, 277, 278, 279, 280, 281, 282, 283, 284, 285, 286, 287, 288, 289],
      "AcquisitionTime": ["184209.462500", "184211.462500", "184213.462500", "184215.462500", "184217.462500", "184219.462500", "184221.462500", "184223.462500", "184225.462500", "184227.462500", "184229.462500", "184231.462500", "184233.462500", "184235.462500", "184237.462500", "184239.462500", "184241.462500", "184243.462500", "184245.462500", "184247.462500", "184249.462500", "184251.462500", "184253.462500", "184255.462500", "184257.462500", "184259.462500", "184301.462500", "184303.462500", "184305.462500", "184307.462500", "184309.462500", "184311.462500", "184313.462500", "184315.462500", "184317.462500", "184319.462500", "184321.462500", "184323.462500", "184325.462500", "184327.462500", "184329.462500", "184331.462500", "184333.462500", "184335.462500", "184337.462500", "184339.462500", "184341.462500", "184343.462500", "184345.462500", "184347.462500", "184349.462500", "184351.462500", "184353.462500", "184355.462500", "184357.462500", "184359.462500", "184401.462500", "184403.462500", "184405.462500", "184407.462500", "184409.462500", "184411.462500", "184413.462500", "184415.462500", "184417.462500", "184419.462500", "184421.462500", "184423.462500", "184425.462500", "184427.462500", "184429.462500", "184431.462500", "184433.462500", "184435.462500", "184437.462500", "184439.462500", "184441.462500", "184443.462500", "184445.462500", "184447.462500", "184449.462500", "184451.462500", "184453.462500", "184455.462500", "184457.462500", "184459.462500", "184501.462500", "184503.462500", "184505.462500", "184507.462500", "184509.462500", "184511.462500", "184513.462500", "184515.462500", "184517.462500", "184519.462500", "184521.462500", "184523.462500", "184525.462500", "184527.462500", "184529.462500", "184531.462500", "184533.462500", "184535.462500", "184537.462500", "184539.462500", "184541.462500", "184543.462500", "184545.462500", "184547.462500", "184549.462500", "184551.462500", "184553.462500", "184555.462500", "184557.462500", "184559.462500", "184601.462500", "184603.462500", "184605.462500", "184607.462500", "184609.462500", "184611.462500", "184613.462500", "184615.462500", "184617.462500", "184619.462500", "184621.462500", "184623.465000", "184625.465000", "184627.465000", "184629.465000", "184631.465000", "184633.465000", "184635.465000", "184637.465000", "184639.465000", "184641.465000", "184643.465000", "184645.465000", "184647.465000", "184649.465000", "184651.465000", "184653.465000", "184655.465000", "184657.465000", "184659.465000", "184701.465000", "184703.465000", "184705.465000", "184707.465000", "184709.465000", "184711.465000", "184713.465000", "184715.465000", "184717.465000", "184719.465000", "184721.465000", "184723.465000", "184725.465000", "184727.465000", "184729.465000", "184731.465000", "184733.465000", "184735.465000", "184737.465000", "184739.465000", "184741.465000", "184743.465000", "184745.465000", "184747.465000", "184749.465000", "184751.465000", "184753.465000", "184755.465000", "184757.465000", "184759.465000", "184801.465000", "184803.465000", "184805.465000", "184807.465000", "184809.465000", "184811.465000", "184813.465000", "184815.465000", "184817.465000", "184819.465000", "184821.465000", "184823.465000", "184825.465000", "184827.465000", "184829.465000", "184831.465000", "184833.465000", "184835.465000", "184837.465000", "184839.465000", "184841.465000", "184843.465000", "184845.465000", "184847.465000", "184849.465000", "184851.465000", "184853.465000", "184855.465000", "184857.465000", "184859.465000", "184901.465000", "184903.465000", "184905.465000", "184907.465000", "184909.465000", "184911.465000", "184913.465000", "184915.465000", "184917.465000", "184919.465000", "184921.465000", "184923.465000", "184925.465000", "184927.465000", "184929.465000", "184931.465000", "184933.465000", "184935.465000", "184937.465000", "184939.465000", "184941.465000", "184943.465000", "184945.465000", "184947.465000", "184949.465000", "184951.465000", "184953.465000", "184955.465000", "184957.465000", "184959.465000", "185001.465000", "185003.465000", "185005.465000", "185007.465000", "185009.465000", "185011.465000", "185013.465000", "185015.465000", "185017.465000", "185019.465000", "185021.465000", "185023.465000", "185025.465000", "185027.465000", "185029.465000", "185031.465000", "185033.465000", "185035.465000", "185037.465000", "185039.465000", "185041.465000", "185043.465000", "185045.465000", "185047.465000", "185049.465000", "185051.465000", "185053.465000", "185055.465000", "185057.465000", "185059.465000", "185101.465000", "185103.465000", "185105.465000", "185107.465000", "185109.465000", "185111.465000", "185113.465000", "185115.465000", "185117.465000", "185119.465000", "185121.465000", "185123.465000", "185125.465000", "185127.465000", "185129.465000", "185131.465000", "185133.465000", "185135.465000", "185137.465000", "185139.465000", "185141.465000", "185143.465000", "185145.465000"],
      "ContentTime": ["184224.668000", "184225.661000", "184225.666000", "184226.661000", "184227.662000", "184227.667000", "184228.661000", "184229.661000", "184231.661000", "184233.661000", "184235.663000", "184237.662000", "184239.662000", "184241.662000", "184243.662000", "184245.662000", "184247.662000", "184249.662000", "184251.661000", "184253.663000", "184255.662000", "184257.662000", "184259.662000", "184301.662000", "184303.662000", "184305.662000", "184307.662000", "184309.662000", "184311.662000", "184313.662000", "184315.662000", "184317.662000", "184319.662000", "184321.662000", "184323.662000", "184325.662000", "184327.662000", "184329.662000", "184331.662000", "184333.663000", "184335.662000", "184337.662000", "184339.662000", "184341.662000", "184343.661000", "184345.662000", "184347.662000", "184349.662000", "184351.662000", "184353.662000", "184355.663000", "184357.662000", "184359.662000", "184401.660000", "184403.661000", "184405.662000", "184407.663000", "184409.662000", "184411.662000", "184413.663000", "184415.662000", "184417.662000", "184419.662000", "184421.662000", "184423.662000", "184425.662000", "184427.662000", "184429.662000", "184431.662000", "184433.662000", "184435.661000", "184437.662000", "184439.662000", "184441.661000", "184443.662000", "184445.662000", "184447.661000", "184449.662000", "184451.662000", "184453.661000", "184455.662000", "184457.662000", "184459.663000", "184501.662000", "184503.662000", "184505.662000", "184507.663000", "184509.663000", "184511.661000", "184513.662000", "184515.662000", "184517.661000", "184519.662000", "184521.662000", "184523.662000", "184525.662000", "184527.662000", "184529.662000", "184531.662000", "184533.662000", "184535.662000", "184537.662000", "184539.662000", "184541.662000", "184543.662000", "184545.662000", "184547.662000", "184549.662000", "184551.662000", "184553.662000", "184555.662000", "184557.662000", "184559.662000", "184601.662000", "184603.661000", "184605.662000", "184607.662000", "184609.662000", "184611.663000", "184613.662000", "184615.662000", "184617.662000", "184619.662000", "184621.662000", "184623.662000", "184625.661000", "184627.662000", "184629.663000", "184631.662000", "184633.662000", "184635.662000", "184637.662000", "184639.662000", "184641.662000", "184643.662000", "184645.662000", "184647.662000", "184649.662000", "184651.661000", "184653.662000", "184655.662000", "184657.662000", "184659.662000", "184701.662000", "184703.662000", "184705.663000", "184707.662000", "184709.662000", "184711.662000", "184713.661000", "184715.662000", "184717.662000", "184719.662000", "184721.662000", "184723.662000", "184725.662000", "184727.662000", "184729.662000", "184731.661000", "184733.662000", "184735.662000", "184737.662000", "184739.661000", "184741.662000", "184743.663000", "184745.662000", "184747.662000", "184749.662000", "184751.662000", "184753.662000", "184755.663000", "184757.663000", "184759.662000", "184801.662000", "184803.662000", "184805.662000", "184807.663000", "184809.662000", "184811.662000", "184813.662000", "184815.662000", "184817.662000", "184819.662000", "184821.663000", "184823.661000", "184825.662000", "184827.663000", "184829.662000", "184831.661000", "184833.662000", "184835.662000", "184837.662000", "184839.662000", "184841.662000", "184843.662000", "184845.662000", "184847.662000", "184849.662000", "184851.663000", "184853.662000", "184855.662000", "184857.662000", "184859.662000", "184901.662000", "184903.663000", "184905.662000", "184907.662000", "184909.662000", "184911.662000", "184913.662000", "184915.662000", "184917.663000", "184919.662000", "184921.662000", "184923.662000", "184925.662000", "184927.662000", "184929.662000", "184931.662000", "184933.661000", "184935.671000", "184937.661000", "184939.662000", "184941.662000", "184943.662000", "184945.662000", "184947.662000", "184949.661000", "184951.662000", "184953.661000", "184955.662000", "184957.662000", "184959.661000", "185001.661000", "185003.662000", "185005.661000", "185007.662000", "185009.662000", "185011.662000", "185013.662000", "185015.662000", "185017.662000", "185019.663000", "185021.662000", "185023.662000", "185025.661000", "185027.662000", "185029.663000", "185031.663000", "185033.663000", "185035.663000", "185037.662000", "185039.662000", "185041.663000", "185043.662000", "185045.662000", "185047.662000", "185049.663000", "185051.662000", "185053.662000", "185055.660000", "185057.663000", "185059.661000", "185101.663000", "185103.663000", "185105.663000", "185107.663000", "185109.663000", "185111.662000", "185113.661000", "185115.663000", "185117.662000", "185119.663000", "185121.662000", "185123.662000", "185125.663000", "185127.662000", "185129.662000", "185131.662000", "185133.663000", "185135.661000", "185137.662000", "185139.662000", "185141.662000", "185143.662000", "185145.662000", "185147.662000", "185149.662000", "185151.521000"],
      "InstanceCreationTime": ["184224.668000", "184225.661000", "184225.666000", "184226.661000", "184227.662000", "184227.667000", "184228.661000", "184229.661000", "184231.661000", "184233.661000", "184235.663000", "184237.662000", "184239.662000", "184241.662000", "184243.662000", "184245.662000", "184247.662000", "184249.662000", "184251.661000", "184253.663000", "184255.662000", "184257.662000", "184259.662000", "184301.662000", "184303.662000", "184305.662000", "184307.662000", "184309.662000", "184311.662000", "184313.662000", "184315.662000", "184317.662000", "184319.662000", "184321.662000", "184323.662000", "184325.662000", "184327.662000", "184329.662000", "184331.662000", "184333.663000", "184335.662000", "184337.662000", "184339.662000", "184341.662000", "184343.661000", "184345.662000", "184347.662000", "184349.662000", "184351.662000", "184353.662000", "184355.663000", "184357.662000", "184359.662000", "184401.660000", "184403.661000", "184405.662000", "184407.663000", "184409.662000", "184411.662000", "184413.663000", "184415.662000", "184417.662000", "184419.662000", "184421.662000", "184423.662000", "184425.662000", "184427.662000", "184429.662000", "184431.662000", "184433.662000", "184435.661000", "184437.662000", "184439.662000", "184441.661000", "184443.662000", "184445.662000", "184447.661000", "184449.662000", "184451.662000", "184453.661000", "184455.662000", "184457.662000", "184459.663000", "184501.662000", "184503.662000", "184505.662000", "184507.663000", "184509.663000", "184511.661000", "184513.662000", "184515.662000", "184517.661000", "184519.662000", "184521.662000", "184523.662000", "184525.662000", "184527.662000", "184529.662000", "184531.662000", "184533.662000", "184535.662000", "184537.662000", "184539.662000", "184541.662000", "184543.662000", "184545.662000", "184547.662000", "184549.662000", "184551.662000", "184553.662000", "184555.662000", "184557.662000", "184559.662000", "184601.662000", "184603.661000", "184605.662000", "184607.662000", "184609.662000", "184611.663000", "184613.662000", "184615.662000", "184617.662000", "184619.662000", "184621.662000", "184623.662000", "184625.661000", "184627.662000", "184629.663000", "184631.662000", "184633.662000", "184635.662000", "184637.662000", "184639.662000", "184641.662000", "184643.662000", "184645.662000", "184647.662000", "184649.662000", "184651.661000", "184653.662000", "184655.662000", "184657.662000", "184659.662000", "184701.662000", "184703.662000", "184705.663000", "184707.662000", "184709.662000", "184711.662000", "184713.661000", "184715.662000", "184717.662000", "184719.662000", "184721.662000", "184723.662000", "184725.662000", "184727.662000", "184729.662000", "184731.661000", "184733.662000", "184735.662000", "184737.662000", "184739.661000", "184741.662000", "184743.663000", "184745.662000", "184747.662000", "184749.662000", "184751.662000", "184753.662000", "184755.663000", "184757.663000", "184759.662000", "184801.662000", "184803.662000", "184805.662000", "184807.663000", "184809.662000", "184811.662000", "184813.662000", "184815.662000", "184817.662000", "184819.662000", "184821.663000", "184823.661000", "184825.662000", "184827.663000", "184829.662000", "184831.661000", "184833.662000", "184835.662000", "184837.662000", "184839.662000", "184841.662000", "184843.662000", "184845.662000", "184847.662000", "184849.662000", "184851.663000", "184853.662000", "184855.662000", "184857.662000", "184859.662000", "184901.662000", "184903.663000", "184905.662000", "184907.662000", "184909.662000", "184911.662000", "184913.662000", "184915.662000", "184917.663000", "184919.662000", "184921.662000", "184923.662000", "184925.662000", "184927.662000", "184929.662000", "184931.662000", "184933.661000", "184935.671000", "184937.661000", "184939.662000", "184941.662000", "184943.662000", "184945.662000", "184947.662000", "184949.661000", "184951.662000", "184953.661000", "184955.662000", "184957.662000", "184959.661000", "185001.661000", "185003.662000", "185005.661000", "185007.662000", "185009.662000", "185011.662000", "185013.662000", "185015.662000", "185017.662000", "185019.663000", "185021.662000", "185023.662000", "185025.661000", "185027.662000", "185029.663000", "185031.663000", "185033.663000", "185035.663000", "185037.662000", "185039.662000", "185041.663000", "185043.662000", "185045.662000", "185047.662000", "185049.663000", "185051.662000", "185053.662000", "185055.660000", "185057.663000", "185059.661000", "185101.663000", "185103.663000", "185105.663000", "185107.663000", "185109.663000", "185111.662000", "185113.661000", "185115.663000", "185117.662000", "185119.663000", "185121.662000", "185123.662000", "185125.663000", "185127.662000", "185129.662000", "185131.662000", "185133.663000", "185135.661000", "185137.662000", "185139.662000", "185141.662000", "185143.662000", "185145.662000", "185147.662000", "185149.662000", "185151.521000"],
      "InstanceNumber": [1, 2, 3, 4, 5, 6, 7, 8, 9, 10, 11, 12, 13, 14, 15, 16, 17, 18, 19, 20, 21, 22, 23, 24, 25, 26, 27, 28, 29, 30, 31, 32, 33, 34, 35, 36, 37, 38, 39, 40, 41, 42, 43, 44, 45, 46, 47, 48, 49, 50, 51, 52, 53, 54, 55, 56, 57, 58, 59, 60, 61, 62, 63, 64, 65, 66, 67, 68, 69, 70, 71, 72, 73, 74, 75, 76, 77, 78, 79, 80, 81, 82, 83, 84, 85, 86, 87, 88, 89, 90, 91, 92, 93, 94, 95, 96, 97, 98, 99, 100, 101, 102, 103, 104, 105, 106, 107, 108, 109, 110, 111, 112, 113, 114, 115, 116, 117, 118, 119, 120, 121, 122, 123, 124, 125, 126, 127, 128, 129, 130, 131, 132, 133, 134, 135, 136, 137, 138, 139, 140, 141, 142, 143, 144, 145, 146, 147, 148, 149, 150, 151, 152, 153, 154, 155, 156, 157, 158, 159, 160, 161, 162, 163, 164, 165, 166, 167, 168, 169, 170, 171, 172, 173, 174, 175, 176, 177, 178, 179, 180, 181, 182, 183, 184, 185, 186, 187, 188, 189, 190, 191, 192, 193, 194, 195, 196, 197, 198, 199, 200, 201, 202, 203, 204, 205, 206, 207, 208, 209, 210, 211, 212, 213, 214, 215, 216, 217, 218, 219, 220, 221, 222, 223, 224, 225, 226, 227, 228, 229, 230, 231, 232, 233, 234, 235, 236, 237, 238, 239, 240, 241, 242, 243, 244, 245, 246, 247, 248, 249, 250, 251, 252, 253, 254, 255, 256, 257, 258, 259, 260, 261, 262, 263, 264, 265, 266, 267, 268, 269, 270, 271, 272, 273, 274, 275, 276, 277, 278, 279, 280, 281, 282, 283, 284, 285, 286, 287, 288, 289],
      "WindowCenter": [16565.0, 16538.0, 16572.0, 16551.0, 16548.0, 16555.0, 16544.0, 16547.0, 16544.0, 16508.0, 16517.0, 16522.0, 16516.0, 16506.0, 16516.0, 16506.0, 16510.0, 16519.0, 16529.0, 16525.0, 16512.0, 16499.0, 16510.0, 16516.0, 16520.0, 16513.0, 16533.0, 16523.0, 16503.0, 16508.0, 16498.0, 16500.0, 16502.0, 16505.0, 16509.0, 16510.0, 16517.0, 16491.0, 16530.0, 16515.0, 16487.0, 16498.0, 16511.0, 16520.0, 16511.0, 16505.0, 16505.0, 16504.0, 16501.0, 16531.0, 16519.0, 16502.0, 16496.0, 16511.0, 16509.0, 16505.0, 16510.0, 16521.0, 16506.0, 16514.0, 16504.0, 16513.0, 16506.0, 16476.0, 16492.0, 16506.0, 16499.0, 16508.0, 16497.0, 16502.0, 16498.0, 16503.0, 16502.0, 16500.0, 16507.0, 16506.0, 16490.0, 16510.0, 16523.0, 16517.0, 16507.0, 16498.0, 16486.0, 16510.0, 16522.0, 16522.0, 16537.0, 16522.0, 16504.0, 16503.0, 16517.0, 16506.0, 16502.0, 16488.0, 16497.0, 16490.0, 16493.0, 16503.0, 16502.0, 16496.0, 16506.0, 16522.0, 16495.0, 16502.0, 16502.0, 16503.0, 16490.0, 16499.0, 16522.0, 16520.0, 16522.0, 16527.0, 16511.0, 16516.0, 16512.0, 16519.0, 16538.0, 16534.0, 16521.0, 16535.0, 16513.0, 16508.0, 16506.0, 16502.0, 16495.0, 16526.0, 16516.0, 16520.0, 16546.0, 16511.0, 16491.0, 16495.0, 16501.0, 16487.0, 16510.0, 16509.0, 16516.0, 16511.0, 16528.0, 16510.0, 16527.0, 16503.0, 16506.0, 16526.0, 16536.0, 16520.0, 16522.0, 16520.0, 16523.0, 16532.0, 16526.0, 16534.0, 16569.0, 16553.0, 16537.0, 16532.0, 16531.0, 16525.0, 16530.0, 16522.0, 16527.0, 16546.0, 16535.0, 16537.0, 16548.0, 16532.0, 16502.0, 16523.0, 16527.0, 16523.0, 16522.0, 16495.0, 16519.0, 16538.0, 16529.0, 16536.0, 16526.0, 16537.0, 16520.0, 16541.0, 16535.0, 16515.0, 16509.0, 16504.0, 16503.0, 16507.0, 16525.0, 16545.0, 16561.0, 16541.0, 16530.0, 16542.0, 16530.0, 16513.0, 16516.0, 16520.0, 16526.0, 16546.0, 16545.0, 16532.0, 16521.0, 16521.0, 16521.0, 16545.0, 16524.0, 16527.0, 16542.0, 16559.0, 16543.0, 16542.0, 16543.0, 16538.0, 16566.0, 16559.0, 16515.0, 16535.0, 16542.0, 16569.0, 16556.0, 16543.0, 16512.0, 16511.0, 16518.0, 16520.0, 16530.0, 16533.0, 16510.0, 16528.0, 16526.0, 16519.0, 16524.0, 16528.0, 16524.0, 16532.0, 16542.0, 16540.0, 16570.0, 16563.0, 16527.0, 16540.0, 16548.0, 16525.0, 16542.0, 16541.0, 16532.0, 16527.0, 16529.0, 16534.0, 16529.0, 16537.0, 16525.0, 16544.0, 16537.0, 16532.0, 16531.0, 16523.0, 16527.0, 16537.0, 16546.0, 16515.0, 16528.0, 16510.0, 16533.0, 16531.0, 16536.0, 16546.0, 16559.0, 16558.0, 16563.0, 16584.0, 16571.0, 16545.0, 16552.0, 16520.0, 16520.0, 16560.0, 16549.0, 16535.0, 16548.0, 16529.0, 16527.0, 16539.0, 16544.0, 16526.0, 16538.0, 16555.0, 16536.0, 16544.0, 16539.0],
      "WindowWidth": [45919.0, 45781.0, 46069.0, 46088.0, 46060.0, 46026.0, 46017.0, 45993.0, 45951.0, 45943.0, 45899.0, 45890.0, 45872.0, 45864.0, 45859.0, 45850.0, 45852.0, 45875.0, 45858.0, 45854.0, 45871.0, 45857.0, 45827.0, 45834.0, 45811.0, 45818.0, 45798.0, 45786.0, 45823.0, 45840.0, 45831.0, 45808.0, 45864.0, 45876.0, 45840.0, 45829.0, 45821.0, 45865.0, 45836.0, 45860.0, 45874.0, 45884.0, 45884.0, 45876.0, 45898.0, 45850.0, 45811.0, 45824.0, 45822.0, 45807.0, 45812.0, 45821.0, 45831.0, 45815.0, 45827.0, 45852.0, 45870.0, 45904.0, 45932.0, 45926.0, 45931.0, 45900.0, 45866.0, 45865.0, 45853.0, 45880.0, 45888.0, 45840.0, 45845.0, 45850.0, 45884.0, 45876.0, 45875.0, 45872.0, 45866.0, 45877.0, 45878.0, 45883.0, 45893.0, 45888.0, 45880.0, 45871.0, 45914.0, 45935.0, 45918.0, 45904.0, 45893.0, 45891.0, 45915.0, 45916.0, 45901.0, 45891.0, 45887.0, 45848.0, 45830.0, 45839.0, 45814.0, 45824.0, 45838.0, 45909.0, 45890.0, 45879.0, 45869.0, 45848.0, 45876.0, 45847.0, 45865.0, 45900.0, 45894.0, 45892.0, 45918.0, 45908.0, 45909.0, 45887.0, 45885.0, 45889.0, 45878.0, 45901.0, 45904.0, 45891.0, 45911.0, 45882.0, 45852.0, 45861.0, 45869.0, 45856.0, 45915.0, 45944.0, 45942.0, 45828.0, 45757.0, 45764.0, 45784.0, 45812.0, 45817.0, 45855.0, 45859.0, 45871.0, 45846.0, 45869.0, 45843.0, 45862.0, 45891.0, 45936.0, 45945.0, 45918.0, 45919.0, 45917.0, 45893.0, 45901.0, 45923.0, 45904.0, 45911.0, 45920.0, 45931.0, 45926.0, 45887.0, 45870.0, 45849.0, 45878.0, 45896.0, 45939.0, 45904.0, 45892.0, 45905.0, 45875.0, 45863.0, 45869.0, 45925.0, 45935.0, 45894.0, 45910.0, 45918.0, 45936.0, 45928.0, 45960.0, 45991.0, 45961.0, 45945.0, 45979.0, 46013.0, 45982.0, 45951.0, 45906.0, 45878.0, 45897.0, 45899.0, 45916.0, 45958.0, 45964.0, 45967.0, 45939.0, 45931.0, 45929.0, 45920.0, 45921.0, 45952.0, 45971.0, 45971.0, 45957.0, 45974.0, 45960.0, 45960.0, 45942.0, 45939.0, 45900.0, 45953.0, 46023.0, 46046.0, 46020.0, 45968.0, 45948.0, 45933.0, 45914.0, 45915.0, 45946.0, 45994.0, 45963.0, 45978.0, 45937.0, 45898.0, 45900.0, 45907.0, 45934.0, 45929.0, 45906.0, 45925.0, 45914.0, 45900.0, 45880.0, 45884.0, 45888.0, 45910.0, 45945.0, 45941.0, 45937.0, 45923.0, 45904.0, 45927.0, 45940.0, 45947.0, 45940.0, 45954.0, 45898.0, 45891.0, 45900.0, 45891.0, 45919.0, 45943.0, 45961.0, 45950.0, 45927.0, 45922.0, 45917.0, 45905.0, 45897.0, 45874.0, 45897.0, 45918.0, 45920.0, 45889.0, 45888.0, 45879.0, 45904.0, 45896.0, 45877.0, 45875.0, 45900.0, 45974.0, 45992.0, 45954.0, 45931.0, 45896.0, 45907.0, 45898.0, 45942.0, 45865.0, 45868.0, 45865.0, 45887.0, 45885.0, 45908.0, 45900.0, 45898.0, 45895.0, 45882.0, 45905.0, 45965.0, 45935.0]
    },
    "slices": {}
  }
}