{
  "AcquisitionMatrixPE": 116,
  "AcquisitionNumber": 1,
  "AcquisitionTime": "09:50:44.710000",
  "BandwidthPerPixelPhaseEncode": 18.539,
  "BaseResolution": 116,
  "BodyPartExamined": "HEAD",
  "ConsistencyInfo": "N4_VD13D_LATEST_20130810",
  "ConversionSoftware": "dcm2niix",
  "ConversionSoftwareVersion": "v1.0.20190410  (JP2:OpenJPEG) (JP-LS:CharLS) GCC5.5.0",
  "DerivedVendorReportedEchoSpacing": 0.000930006,
  "DeviceSerialNumber": "66014",
  "DwellTime": 3e-06,
  "EchoTime": 0.03,
  "EchoTrainLength": 50,
  "EffectiveEchoSpacing": 0.000465003,
  "FlipAngle": 81,
  "ImageComments": "Unaliased_MB3_PE4",
  "ImageOrientationPatientDICOM": [0.999513, -0.0176971, 0.0256874, 0.0209368, 0.991042, -0.131896],
  "ImageType": [
    "ORIGINAL",
    "PRIMARY",
    "M",
    "MB",
    "ND",
    "MOSAIC"
],
  "ImagingFrequency": 123.261,
  "InPlanePhaseEncodingDirectionDICOM": "COL",
  "InstitutionAddress": "Yiheyuan_Road_5_Beijing_Haidian_CN_100871",
  "InstitutionName": "Peking_Univeristy",
  "InstitutionalDepartmentName": "Department",
  "MRAcquisitionType": "2D",
  "MagneticFieldStrength": 3,
  "Manufacturer": "Siemens",
  "ManufacturersModelName": "Prisma",
  "Modality": "MR",
  "MultibandAccelerationFactor": 3,
  "ParallelReductionFactorInPlane": 2,
  "PartialFourier": 0.875,
  "PatientPosition": "HFS",
  "PercentPhaseFOV": 100,
  "PhaseEncodingDirection": "j-",
  "PhaseEncodingSteps": 101,
  "PhaseResolution": 1,
  "PixelBandwidth": 1435,
  "ProcedureStepDescription": "Research_Projects_64CH",
  "ProtocolName": "mbep2d_bold_MB3_learn2",
  "PulseSequenceDetails": "%CustomerSeq%_cmrr_mbep2d_bold",
  "ReceiveCoilActiveElements": "HC1-6",
  "ReceiveCoilName": "HeadNeck_64",
  "ReconMatrixPE": 116,
  "RefLinesPE": 44,
  "RepetitionTime": 2,
  "SAR": 0.0516601,
  "ScanOptions": "PFP_FS",
  "ScanningSequence": "EP",
  "SequenceName": "epfid2d1_116",
  "SequenceVariant": "SK_SS",
  "SeriesDescription": "mbep2d_bold_MB3_learn2",
  "SeriesNumber": 7,
  "ShimSetting": [-3442, -2095, -1978, 382, 1, -122, -57, 11],
  "SliceThickness": 1.9,
  "SliceTiming": [0, 0.9075, 1.815, 0.7425, 1.65, 0.5775, 1.485, 0.4125, 1.32, 0.2475, 1.155, 0.0825, 0.99, 1.8975, 0.825, 1.7325, 0.66, 1.5675, 0.495, 1.4025, 0.33, 1.2375, 0.165, 1.0725, 0, 0.9075, 1.815, 0.7425, 1.65, 0.5775, 1.485, 0.4125, 1.32, 0.2475, 1.155, 0.0825, 0.99, 1.8975, 0.825, 1.7325, 0.66, 1.5675, 0.495, 1.4025, 0.33, 1.2375, 0.165, 1.0725, 0, 0.9075, 1.815, 0.7425, 1.65, 0.5775, 1.485, 0.4125, 1.32, 0.2475, 1.155, 0.0825, 0.99, 1.8975, 0.825, 1.7325, 0.66, 1.5675, 0.495, 1.4025, 0.33, 1.2375, 0.165, 1.0725],
  "SoftwareVersions": "syngo_MR_D13D",
  "SpacingBetweenSlices": 1.9,
  "StationName": "AWP66014",
  "TaskName": "updating",
  "TotalReadoutTime": 0.0534753,
  "TxRefAmp": 226.564,
  "WipMemBlock": "afb3bb99-3842-410d-b5ce-4a67ca4c6678||Sequence: vd13d/master r/0735857; Nov 19 2014 09:21:40 by eja",
  "dcmmeta_affine": [
    [-1.895628809928894, 0.039707813411951065, 0.043933965265750885, 106.14523315429688],
    [0.03356349840760231, 1.8795632123947144, -0.25150200724601746, -89.95121002197266],
    [0.04871750622987747, 0.2501473128795624, 1.8827683925628662, -81.99115753173828],
    [0.0, 0.0, 0.0, 1.0]
],
  "dcmmeta_reorient_transform": [
    [0.0, -1.0, 0.0, 115.0],
    [1.0, 0.0, 0.0, 0.0],
    [0.0, 0.0, 1.0, 0.0],
    [0.0, 0.0, 0.0, 1.0]
],
  "dcmmeta_shape": [116, 116, 72, 218],
  "dcmmeta_slice_dim": 2,
  "dcmmeta_version": 0.6,
  "global": {
    "const": {
      "AcquisitionMatrix": [116, 0, 0, 116],
      "AngioFlag": "N",
      "BitsAllocated": 16,
      "BitsStored": 16,
      "BodyPartExamined": "HEAD",
      "Columns": 1044,
      "EchoNumbers": 1,
      "EchoTime": 30.0,
      "EchoTrainLength": 50,
      "FlipAngle": 81.0,
      "HighBit": 15,
      "ImageOrientationPatient": [0.99951336601645, -0.0176971173946, 0.02568741307302, 0.02093684636572, 0.99104244738059, -0.1318958526799],
      "ImagePositionPatient": [-1008.7078230866, -982.74245586207, 40.239212799519],
      "ImageType": [
        "ORIGINAL",
        "PRIMARY",
        "M",
        "MB",
        "ND",
        "MOSAIC"
],
      "ImagedNucleus": "1H",
      "ImagingFrequency": 123.260558,
      "InPlanePhaseEncodingDirection": "COL",
      "LargestImagePixelValue": 65535,
      "MRAcquisitionType": "2D",
      "MagneticFieldStrength": 3.0,
      "Manufacturer": "SIEMENS",
      "ManufacturerModelName": "Prisma",
      "Modality": "MR",
      "NumberOfAverages": 1.0,
      "NumberOfPhaseEncodingSteps": 101,
      "PercentPhaseFieldOfView": 100.0,
      "PercentSampling": 100.0,
      "PerformedProcedureStepStartTime": "090716.229000",
      "PhotometricInterpretation": "MONOCHROME2",
      "PixelBandwidth": 1435.0,
      "PixelRepresentation": 0,
      "PixelSpacing": [1.8965517282486, 1.8965517282486],
      "ProtocolName": "mbep2d_bold_MB3_learn2",
      "RepetitionTime": 2000.0,
      "Rows": 1044,
      "SAR": 0.05166009640782,
      "SamplesPerPixel": 1,
      "ScanOptions": [
        "PFP",
        "FS"
],
      "ScanningSequence": "EP",
      "SequenceName": "epfid2d1_116",
      "SequenceVariant": [
        "SK",
        "SS"
],
      "SeriesDescription": "mbep2d_bold_MB3_learn2",
      "SeriesNumber": 7,
      "SeriesTime": "095056.369000",
      "SliceLocation": -66.886345312456,
      "SliceThickness": 1.8999999761581,
      "SmallestImagePixelValue": 0,
      "SoftwareVersions": "syngo MR D13D",
      "SpacingBetweenSlices": 1.9000000164933,
      "SpecificCharacterSet": "ISO_IR 100",
      "StudyID": "1",
      "StudyTime": "090716.166000",
      "TimeOfLastCalibration": ["123723.000000", "123723.000000"],
      "TransmitCoilName": "Body",
      "VariableFlipAngleFlag": "N",
      "WindowCenterWidthExplanation": "Algo1",
      "dBdt": 0.0},
    "slices": {}
  },
  "time": {
    "samples": {
      "AcquisitionNumber": [1, 2, 3, 4, 5, 6, 7, 8, 9, 10, 11, 12, 13, 14, 15, 16, 17, 18, 19, 20, 21, 22, 23, 24, 25, 26, 27, 28, 29, 30, 31, 32, 33, 34, 35, 36, 37, 38, 39, 40, 41, 42, 43, 44, 45, 46, 47, 48, 49, 50, 51, 52, 53, 54, 55, 56, 57, 58, 59, 60, 61, 62, 63, 64, 65, 66, 67, 68, 69, 70, 71, 72, 73, 74, 75, 76, 77, 78, 79, 80, 81, 82, 83, 84, 85, 86, 87, 88, 89, 90, 91, 92, 93, 94, 95, 96, 97, 98, 99, 100, 101, 102, 103, 104, 105, 106, 107, 108, 109, 110, 111, 112, 113, 114, 115, 116, 117, 118, 119, 120, 121, 122, 123, 124, 125, 126, 127, 128, 129, 130, 131, 132, 133, 134, 135, 136, 137, 138, 139, 140, 141, 142, 143, 144, 145, 146, 147, 148, 149, 150, 151, 152, 153, 154, 155, 156, 157, 158, 159, 160, 161, 162, 163, 164, 165, 166, 167, 168, 169, 170, 171, 172, 173, 174, 175, 176, 177, 178, 179, 180, 181, 182, 183, 184, 185, 186, 187, 188, 189, 190, 191, 192, 193, 194, 195, 196, 197, 198, 199, 200, 201, 202, 203, 204, 205, 206, 207, 208, 209, 210, 211, 212, 213, 214, 215, 216, 217, 218],
      "AcquisitionTime": ["095044.710000", "095046.710000", "095048.710000", "095050.710000", "095052.710000", "095054.710000", "095056.710000", "095058.710000", "095100.710000", "095102.710000", "095104.710000", "095106.710000", "095108.710000", "095110.710000", "095112.710000", "095114.710000", "095116.710000", "095118.710000", "095120.710000", "095122.710000", "095124.710000", "095126.710000", "095128.710000", "095130.710000", "095132.710000", "095134.710000", "095136.710000", "095138.710000", "095140.710000", "095142.710000", "095144.710000", "095146.710000", "095148.710000", "095150.710000", "095152.710000", "095154.710000", "095156.710000", "095158.710000", "095200.710000", "095202.710000", "095204.710000", "095206.710000", "095208.710000", "095210.710000", "095212.710000", "095214.710000", "095216.710000", "095218.710000", "095220.710000", "095222.710000", "095224.710000", "095226.710000", "095228.710000", "095230.710000", "095232.710000", "095234.710000", "095236.710000", "095238.710000", "095240.712500", "095242.712500", "095244.712500", "095246.712500", "095248.712500", "095250.712500", "095252.712500", "095254.712500", "095256.712500", "095258.712500", "095300.712500", "095302.712500", "095304.712500", "095306.712500", "095308.712500", "095310.712500", "095312.712500", "095314.712500", "095316.712500", "095318.712500", "095320.712500", "095322.712500", "095324.712500", "095326.712500", "095328.712500", "095330.712500", "095332.712500", "095334.712500", "095336.712500", "095338.712500", "095340.712500", "095342.712500", "095344.712500", "095346.712500", "095348.712500", "095350.712500", "095352.712500", "095354.712500", "095356.712500", "095358.712500", "095400.712500", "095402.712500", "095404.712500", "095406.712500", "095408.712500", "095410.712500", "095412.712500", "095414.712500", "095416.712500", "095418.712500", "095420.712500", "095422.712500", "095424.712500", "095426.712500", "095428.712500", "095430.712500", "095432.712500", "095434.712500", "095436.712500", "095438.712500", "095440.712500", "095442.712500", "095444.712500", "095446.712500", "095448.712500", "095450.712500", "095452.712500", "095454.712500", "095456.712500", "095458.712500", "095500.712500", "095502.712500", "095504.712500", "095506.712500", "095508.712500", "095510.712500", "095512.712500", "095514.712500", "095516.712500", "095518.712500", "095520.712500", "095522.712500", "095524.712500", "095526.712500", "095528.712500", "095530.712500", "095532.712500", "095534.712500", "095536.712500", "095538.712500", "095540.712500", "095542.712500", "095544.712500", "095546.712500", "095548.712500", "095550.712500", "095552.712500", "095554.712500", "095556.712500", "095558.712500", "095600.712500", "095602.712500", "095604.712500", "095606.712500", "095608.712500", "095610.712500", "095612.712500", "095614.712500", "095616.712500", "095618.712500", "095620.712500", "095622.712500", "095624.712500", "095626.712500", "095628.712500", "095630.712500", "095632.712500", "095634.712500", "095636.712500", "095638.712500", "095640.712500", "095642.712500", "095644.712500", "095646.712500", "095648.712500", "095650.712500", "095652.712500", "095654.712500", "095656.712500", "095658.712500", "095700.712500", "095702.712500", "095704.712500", "095706.712500", "095708.712500", "095710.712500", "095712.712500", "095714.712500", "095716.712500", "095718.712500", "095720.712500", "095722.712500", "095724.712500", "095726.712500", "095728.712500", "095730.712500", "095732.712500", "095734.712500", "095736.712500", "095738.712500", "095740.712500", "095742.712500", "095744.712500", "095746.712500", "095748.712500", "095750.712500", "095752.712500", "095754.712500", "095756.712500", "095758.712500"],
      "ContentTime": ["095056.374000", "095057.368000", "095058.368000", "095058.372000", "095059.367000", "095059.372000", "095100.367000", "095101.866000", "095103.867000", "095105.868000", "095107.868000", "095109.868000", "095111.868000", "095113.869000", "095115.867000", "095117.868000", "095119.867000", "095121.867000", "095123.869000", "095125.868000", "095127.868000", "095129.868000", "095131.868000", "095133.868000", "095135.868000", "095137.868000", "095139.868000", "095141.868000", "095143.869000", "095145.868000", "095147.868000", "095149.868000", "095151.868000", "095153.868000", "095155.867000", "095157.869000", "095159.868000", "095201.868000", "095203.868000", "095205.868000", "095207.868000", "095209.868000", "095211.867000", "095213.867000", "095215.868000", "095217.869000", "095219.868000", "095221.868000", "095223.868000", "095225.868000", "095227.868000", "095229.867000", "095231.867000", "095233.868000", "095235.868000", "095237.868000", "095239.868000", "095241.869000", "095243.868000", "095245.868000", "095247.868000", "095249.868000", "095251.868000", "095253.868000", "095255.868000", "095257.868000", "095259.868000", "095301.868000", "095303.868000", "095305.867000", "095307.868000", "095309.868000", "095311.868000", "095313.868000", "095315.868000", "095317.868000", "095319.868000", "095321.867000", "095323.867000", "095325.868000", "095327.868000", "095329.868000", "095331.868000", "095333.867000", "095335.868000", "095337.868000", "095339.867000", "095341.867000", "095343.868000", "095345.868000", "095347.869000", "095349.868000", "095351.868000", "095353.868000", "095355.868000", "095357.867000", "095359.868000", "095401.868000", "095403.868000", "095405.868000", "095407.868000", "095409.868000", "095411.868000", "095413.868000", "095415.867000", "095417.868000", "095419.868000", "095421.869000", "095423.868000", "095425.868000", "095427.868000", "095429.867000", "095431.867000", "095433.867000", "095435.869000", "095437.868000", "095439.868000", "095441.868000", "095443.868000", "095445.868000", "095447.868000", "095449.867000", "095451.867000", "095453.867000", "095455.868000", "095457.868000", "095459.868000", "095501.868000", "095503.868000", "095505.868000", "095507.867000", "095509.868000", "095511.868000", "095513.868000", "095515.869000", "095517.867000", "095519.868000", "095521.868000", "095523.868000", "095525.867000", "095527.868000", "095529.868000", "095531.868000", "095533.868000", "095535.867000", "095537.869000", "095539.868000", "095541.867000", "095543.867000", "095545.868000", "095547.868000", "095549.867000", "095551.868000", "095553.868000", "095555.868000", "095557.868000", "095559.868000", "095601.868000", "095603.868000", "095605.868000", "095607.868000", "095609.868000", "095611.868000", "095613.868000", "095615.868000", "095617.867000", "095619.868000", "095621.868000", "095623.868000", "095625.868000", "095627.868000", "095629.868000", "095631.868000", "095633.869000", "095635.867000", "095637.868000", "095639.869000", "095641.868000", "095643.868000", "095645.868000", "095647.868000", "095649.868000", "095651.867000", "095653.867000", "095655.868000", "095657.868000", "095659.868000", "095701.868000", "095703.868000", "095705.868000", "095707.869000", "095709.867000", "095711.868000", "095713.868000", "095715.868000", "095717.868000", "095719.868000", "095721.868000", "095723.880000", "095725.868000", "095727.866000", "095729.868000", "095731.868000", "095733.868000", "095735.868000", "095737.868000", "095739.868000", "095741.868000", "095743.868000", "095745.867000", "095747.869000", "095749.868000", "095751.868000", "095753.869000", "095755.868000", "095757.869000", "095759.868000", "095801.436000"],
      "InstanceCreationTime": ["095056.374000", "095057.368000", "095058.368000", "095058.372000", "095059.367000", "095059.372000", "095100.367000", "095101.866000", "095103.867000", "095105.868000", "095107.868000", "095109.868000", "095111.868000", "095113.869000", "095115.867000", "095117.868000", "095119.867000", "095121.867000", "095123.869000", "095125.868000", "095127.868000", "095129.868000", "095131.868000", "095133.868000", "095135.868000", "095137.868000", "095139.868000", "095141.868000", "095143.869000", "095145.868000", "095147.868000", "095149.868000", "095151.868000", "095153.868000", "095155.867000", "095157.869000", "095159.868000", "095201.868000", "095203.868000", "095205.868000", "095207.868000", "095209.868000", "095211.867000", "095213.867000", "095215.868000", "095217.869000", "095219.868000", "095221.868000", "095223.868000", "095225.868000", "095227.868000", "095229.867000", "095231.867000", "095233.868000", "095235.868000", "095237.868000", "095239.868000", "095241.869000", "095243.868000", "095245.868000", "095247.868000", "095249.868000", "095251.868000", "095253.868000", "095255.868000", "095257.868000", "095259.868000", "095301.868000", "095303.868000", "095305.867000", "095307.868000", "095309.868000", "095311.868000", "095313.868000", "095315.868000", "095317.868000", "095319.868000", "095321.867000", "095323.867000", "095325.868000", "095327.868000", "095329.868000", "095331.868000", "095333.867000", "095335.868000", "095337.868000", "095339.867000", "095341.867000", "095343.868000", "095345.868000", "095347.869000", "095349.868000", "095351.868000", "095353.868000", "095355.868000", "095357.867000", "095359.868000", "095401.868000", "095403.868000", "095405.868000", "095407.868000", "095409.868000", "095411.868000", "095413.868000", "095415.867000", "095417.868000", "095419.868000", "095421.869000", "095423.868000", "095425.868000", "095427.868000", "095429.867000", "095431.867000", "095433.867000", "095435.869000", "095437.868000", "095439.868000", "095441.868000", "095443.868000", "095445.868000", "095447.868000", "095449.867000", "095451.867000", "095453.867000", "095455.868000", "095457.868000", "095459.868000", "095501.868000", "095503.868000", "095505.868000", "095507.867000", "095509.868000", "095511.868000", "095513.868000", "095515.869000", "095517.867000", "095519.868000", "095521.868000", "095523.868000", "095525.867000", "095527.868000", "095529.868000", "095531.868000", "095533.868000", "095535.867000", "095537.869000", "095539.868000", "095541.867000", "095543.867000", "095545.868000", "095547.868000", "095549.867000", "095551.868000", "095553.868000", "095555.868000", "095557.868000", "095559.868000", "095601.868000", "095603.868000", "095605.868000", "095607.868000", "095609.868000", "095611.868000", "095613.868000", "095615.868000", "095617.867000", "095619.868000", "095621.868000", "095623.868000", "095625.868000", "095627.868000", "095629.868000", "095631.868000", "095633.869000", "095635.867000", "095637.868000", "095639.869000", "095641.868000", "095643.868000", "095645.868000", "095647.868000", "095649.868000", "095651.867000", "095653.867000", "095655.868000", "095657.868000", "095659.868000", "095701.868000", "095703.868000", "095705.868000", "095707.869000", "095709.867000", "095711.868000", "095713.868000", "095715.868000", "095717.868000", "095719.868000", "095721.868000", "095723.880000", "095725.868000", "095727.866000", "095729.868000", "095731.868000", "095733.868000", "095735.868000", "095737.868000", "095739.868000", "095741.868000", "095743.868000", "095745.867000", "095747.869000", "095749.868000", "095751.868000", "095753.869000", "095755.868000", "095757.869000", "095759.868000", "095801.436000"],
      "InstanceNumber": [1, 2, 3, 4, 5, 6, 7, 8, 9, 10, 11, 12, 13, 14, 15, 16, 17, 18, 19, 20, 21, 22, 23, 24, 25, 26, 27, 28, 29, 30, 31, 32, 33, 34, 35, 36, 37, 38, 39, 40, 41, 42, 43, 44, 45, 46, 47, 48, 49, 50, 51, 52, 53, 54, 55, 56, 57, 58, 59, 60, 61, 62, 63, 64, 65, 66, 67, 68, 69, 70, 71, 72, 73, 74, 75, 76, 77, 78, 79, 80, 81, 82, 83, 84, 85, 86, 87, 88, 89, 90, 91, 92, 93, 94, 95, 96, 97, 98, 99, 100, 101, 102, 103, 104, 105, 106, 107, 108, 109, 110, 111, 112, 113, 114, 115, 116, 117, 118, 119, 120, 121, 122, 123, 124, 125, 126, 127, 128, 129, 130, 131, 132, 133, 134, 135, 136, 137, 138, 139, 140, 141, 142, 143, 144, 145, 146, 147, 148, 149, 150, 151, 152, 153, 154, 155, 156, 157, 158, 159, 160, 161, 162, 163, 164, 165, 166, 167, 168, 169, 170, 171, 172, 173, 174, 175, 176, 177, 178, 179, 180, 181, 182, 183, 184, 185, 186, 187, 188, 189, 190, 191, 192, 193, 194, 195, 196, 197, 198, 199, 200, 201, 202, 203, 204, 205, 206, 207, 208, 209, 210, 211, 212, 213, 214, 215, 216, 217, 218],
      "WindowCenter": [17340.0, 17330.0, 17340.0, 17343.0, 17347.0, 17341.0, 17350.0, 17331.0, 17339.0, 17334.0, 17332.0, 17336.0, 17345.0, 17337.0, 17339.0, 17347.0, 17315.0, 17326.0, 17328.0, 17324.0, 17321.0, 17331.0, 17329.0, 17347.0, 17347.0, 17338.0, 17351.0, 17360.0, 17338.0, 17348.0, 17356.0, 17334.0, 17322.0, 17331.0, 17316.0, 17313.0, 17308.0, 17318.0, 17309.0, 17330.0, 17345.0, 17345.0, 17321.0, 17326.0, 17325.0, 17326.0, 17341.0, 17339.0, 17342.0, 17358.0, 17353.0, 17336.0, 17344.0, 17333.0, 17332.0, 17327.0, 17336.0, 17349.0, 17338.0, 17346.0, 17337.0, 17323.0, 17313.0, 17361.0, 17369.0, 17341.0, 17344.0, 17338.0, 17336.0, 17340.0, 17345.0, 17336.0, 17330.0, 17305.0, 17346.0, 17340.0, 17361.0, 17347.0, 17350.0, 17343.0, 17344.0, 17332.0, 17355.0, 17343.0, 17355.0, 17373.0, 17367.0, 17354.0, 17337.0, 17315.0, 17337.0, 17345.0, 17354.0, 17359.0, 17366.0, 17361.0, 17361.0, 17360.0, 17341.0, 17356.0, 17346.0, 17356.0, 17346.0, 17341.0, 17338.0, 17346.0, 17359.0, 17357.0, 17351.0, 17340.0, 17362.0, 17364.0, 17379.0, 17369.0, 17366.0, 17349.0, 17355.0, 17369.0, 17375.0, 17347.0, 17353.0, 17351.0, 17379.0, 17384.0, 17368.0, 17367.0, 17371.0, 17359.0, 17374.0, 17354.0, 17373.0, 17376.0, 17378.0, 17367.0, 17350.0, 17353.0, 17381.0, 17363.0, 17376.0, 17368.0, 17377.0, 17355.0, 17358.0, 17358.0, 17372.0, 17372.0, 17368.0, 17360.0, 17364.0, 17376.0, 17358.0, 17367.0, 17374.0, 17370.0, 17368.0, 17362.0, 17361.0, 17368.0, 17368.0, 17364.0, 17361.0, 17367.0, 17353.0, 17357.0, 17350.0, 17358.0, 17352.0, 17369.0, 17358.0, 17365.0, 17380.0, 17365.0, 17365.0, 17375.0, 17361.0, 17372.0, 17364.0, 17357.0, 17360.0, 17362.0, 17380.0, 17382.0, 17366.0, 17368.0, 17359.0, 17381.0, 17363.0, 17378.0, 17364.0, 17374.0, 17374.0, 17385.0, 17379.0, 17387.0, 17379.0, 17367.0, 17369.0, 17376.0, 17397.0, 17394.0, 17361.0, 17372.0, 17375.0, 17357.0, 17363.0, 17362.0, 17381.0, 17371.0, 17407.0, 17378.0, 17359.0, 17357.0, 17372.0, 17392.0, 17397.0, 17372.0, 17374.0, 17381.0],
      "WindowWidth": [48231.0, 48160.0, 48144.0, 48198.0, 48236.0, 48196.0, 48188.0, 48177.0, 48204.0, 48239.0, 48223.0, 48215.0, 48234.0, 48215.0, 48178.0, 48147.0, 48148.0, 48119.0, 48145.0, 48142.0, 48128.0, 48159.0, 48113.0, 48235.0, 48261.0, 48256.0, 48249.0, 48206.0, 48241.0, 48235.0, 48226.0, 48201.0, 48179.0, 48185.0, 48161.0, 48121.0, 48081.0, 48127.0, 48163.0, 48238.0, 48246.0, 48232.0, 48202.0, 48156.0, 48181.0, 48181.0, 48179.0, 48154.0, 48167.0, 48143.0, 48152.0, 48154.0, 48170.0, 48163.0, 48164.0, 48171.0, 48203.0, 48175.0, 48166.0, 48172.0, 48164.0, 48129.0, 48124.0, 48158.0, 48199.0, 48180.0, 48159.0, 48153.0, 48202.0, 48206.0, 48157.0, 48164.0, 48148.0, 48156.0, 48159.0, 48172.0, 48172.0, 48185.0, 48123.0, 48129.0, 48143.0, 48162.0, 48137.0, 48118.0, 48140.0, 48167.0, 48211.0, 48175.0, 48153.0, 48176.0, 48204.0, 48185.0, 48189.0, 48171.0, 48212.0, 48222.0, 48156.0, 48106.0, 48144.0, 48167.0, 48200.0, 48205.0, 48172.0, 48169.0, 48142.0, 48148.0, 48170.0, 48168.0, 48163.0, 48155.0, 48158.0, 48199.0, 48245.0, 48239.0, 48173.0, 48163.0, 48158.0, 48203.0, 48219.0, 48198.0, 48125.0, 48126.0, 48184.0, 48200.0, 48213.0, 48188.0, 48178.0, 48193.0, 48191.0, 48226.0, 48180.0, 48193.0, 48155.0, 48138.0, 48164.0, 48216.0, 48220.0, 48209.0, 48191.0, 48202.0, 48193.0, 48193.0, 48193.0, 48169.0, 48204.0, 48240.0, 48211.0, 48170.0, 48198.0, 48169.0, 48169.0, 48162.0, 48180.0, 48202.0, 48189.0, 48171.0, 48161.0, 48242.0, 48265.0, 48260.0, 48208.0, 48149.0, 48177.0, 48191.0, 48146.0, 48115.0, 48174.0, 48151.0, 48154.0, 48160.0, 48184.0, 48199.0, 48224.0, 48205.0, 48208.0, 48203.0, 48182.0, 48115.0, 48092.0, 48110.0, 48197.0, 48173.0, 48174.0, 48150.0, 48182.0, 48175.0, 48222.0, 48219.0, 48221.0, 48165.0, 48177.0, 48187.0, 48195.0, 48175.0, 48146.0, 48176.0, 48204.0, 48258.0, 48284.0, 48231.0, 48208.0, 48154.0, 48180.0, 48156.0, 48159.0, 48158.0, 48145.0, 48178.0, 48173.0, 48143.0, 48117.0, 48081.0, 48102.0, 48117.0, 48093.0, 48104.0, 48105.0, 48148.0]
    },
    "slices": {}
  }
}