{
  "AcquisitionMatrixPE": 116,
  "AcquisitionNumber": 1,
  "AcquisitionTime": "10:07:14.967500",
  "BandwidthPerPixelPhaseEncode": 18.539,
  "BaseResolution": 116,
  "BodyPartExamined": "HEAD",
  "ConsistencyInfo": "N4_VD13D_LATEST_20130810",
  "ConversionSoftware": "dcm2niix",
  "ConversionSoftwareVersion": "v1.0.20190410  (JP2:OpenJPEG) (JP-LS:CharLS) GCC5.5.0",
  "DerivedVendorReportedEchoSpacing": 0.000930006,
  "DeviceSerialNumber": "66014",
  "DwellTime": 3e-06,
  "EchoTime": 0.03,
  "EchoTrainLength": 50,
  "EffectiveEchoSpacing": 0.000465003,
  "FlipAngle": 81,
  "ImageComments": "Unaliased_MB3_PE4",
  "ImageOrientationPatientDICOM": [0.999513, -0.0176971, 0.0256874, 0.0209368, 0.991042, -0.131896],
  "ImageType": [
    "ORIGINAL",
    "PRIMARY",
    "M",
    "MB",
    "ND",
    "MOSAIC"
],
  "ImagingFrequency": 123.261,
  "InPlanePhaseEncodingDirectionDICOM": "COL",
  "InstitutionAddress": "Yiheyuan_Road_5_Beijing_Haidian_CN_100871",
  "InstitutionName": "Peking_Univeristy",
  "InstitutionalDepartmentName": "Department",
  "MRAcquisitionType": "2D",
  "MagneticFieldStrength": 3,
  "Manufacturer": "Siemens",
  "ManufacturersModelName": "Prisma",
  "Modality": "MR",
  "MultibandAccelerationFactor": 3,
  "ParallelReductionFactorInPlane": 2,
  "PartialFourier": 0.875,
  "PatientPosition": "HFS",
  "PercentPhaseFOV": 100,
  "PhaseEncodingDirection": "j-",
  "PhaseEncodingSteps": 101,
  "PhaseResolution": 1,
  "PixelBandwidth": 1435,
  "ProcedureStepDescription": "Research_Projects_64CH",
  "ProtocolName": "mbep2d_bold_MB3_learn4",
  "PulseSequenceDetails": "%CustomerSeq%_cmrr_mbep2d_bold",
  "ReceiveCoilActiveElements": "HC1-6",
  "ReceiveCoilName": "HeadNeck_64",
  "ReconMatrixPE": 116,
  "RefLinesPE": 44,
  "RepetitionTime": 2,
  "SAR": 0.0516601,
  "ScanOptions": "PFP_FS",
  "ScanningSequence": "EP",
  "SequenceName": "epfid2d1_116",
  "SequenceVariant": "SK_SS",
  "SeriesDescription": "mbep2d_bold_MB3_learn4",
  "SeriesNumber": 9,
  "ShimSetting": [-3442, -2095, -1978, 382, 1, -122, -57, 11],
  "SliceThickness": 1.9,
  "SliceTiming": [0, 0.9075, 1.815, 0.7425, 1.65, 0.5775, 1.485, 0.4125, 1.32, 0.2475, 1.155, 0.0825, 0.99, 1.8975, 0.825, 1.7325, 0.66, 1.5675, 0.495, 1.4025, 0.33, 1.2375, 0.165, 1.0725, 0, 0.9075, 1.815, 0.7425, 1.65, 0.5775, 1.485, 0.4125, 1.32, 0.2475, 1.155, 0.0825, 0.99, 1.8975, 0.825, 1.7325, 0.66, 1.5675, 0.495, 1.4025, 0.33, 1.2375, 0.165, 1.0725, 0, 0.9075, 1.815, 0.7425, 1.65, 0.5775, 1.485, 0.4125, 1.32, 0.2475, 1.155, 0.0825, 0.99, 1.8975, 0.825, 1.7325, 0.66, 1.5675, 0.495, 1.4025, 0.33, 1.2375, 0.165, 1.0725],
  "SoftwareVersions": "syngo_MR_D13D",
  "SpacingBetweenSlices": 1.9,
  "StationName": "AWP66014",
  "TaskName": "updating",
  "TotalReadoutTime": 0.0534753,
  "TxRefAmp": 226.564,
  "WipMemBlock": "2bf43775-bdcc-48f9-8921-74ff924f46f2||Sequence: vd13d/master r/0735857; Nov 19 2014 09:21:40 by eja",
  "dcmmeta_affine": [
    [-1.895628809928894, 0.039707813411951065, 0.043933965265750885, 106.14523315429688],
    [0.03356349840760231, 1.8795632123947144, -0.25150200724601746, -89.95121002197266],
    [0.04871750622987747, 0.2501473128795624, 1.8827683925628662, -81.99115753173828],
    [0.0, 0.0, 0.0, 1.0]
],
  "dcmmeta_reorient_transform": [
    [0.0, -1.0, 0.0, 115.0],
    [1.0, 0.0, 0.0, 0.0],
    [0.0, 0.0, 1.0, 0.0],
    [0.0, 0.0, 0.0, 1.0]
],
  "dcmmeta_shape": [116, 116, 72, 218],
  "dcmmeta_slice_dim": 2,
  "dcmmeta_version": 0.6,
  "global": {
    "const": {
      "AcquisitionMatrix": [116, 0, 0, 116],
      "AngioFlag": "N",
      "BitsAllocated": 16,
      "BitsStored": 16,
      "BodyPartExamined": "HEAD",
      "Columns": 1044,
      "EchoNumbers": 1,
      "EchoTime": 30.0,
      "EchoTrainLength": 50,
      "FlipAngle": 81.0,
      "HighBit": 15,
      "ImageOrientationPatient": [0.99951336601645, -0.0176971173946, 0.02568741307302, 0.02093684636572, 0.99104244738059, -0.1318958526799],
      "ImagePositionPatient": [-1008.7078230866, -982.74245586207, 40.239212799519],
      "ImageType": [
        "ORIGINAL",
        "PRIMARY",
        "M",
        "MB",
        "ND",
        "MOSAIC"
],
      "ImagedNucleus": "1H",
      "ImagingFrequency": 123.260561,
      "InPlanePhaseEncodingDirection": "COL",
      "LargestImagePixelValue": 65535,
      "MRAcquisitionType": "2D",
      "MagneticFieldStrength": 3.0,
      "Manufacturer": "SIEMENS",
      "ManufacturerModelName": "Prisma",
      "Modality": "MR",
      "NumberOfAverages": 1.0,
      "NumberOfPhaseEncodingSteps": 101,
      "PercentPhaseFieldOfView": 100.0,
      "PercentSampling": 100.0,
      "PerformedProcedureStepStartTime": "090716.229000",
      "PhotometricInterpretation": "MONOCHROME2",
      "PixelBandwidth": 1435.0,
      "PixelRepresentation": 0,
      "PixelSpacing": [1.8965517282486, 1.8965517282486],
      "ProtocolName": "mbep2d_bold_MB3_learn4",
      "RepetitionTime": 2000.0,
      "Rows": 1044,
      "SAR": 0.05166009640782,
      "SamplesPerPixel": 1,
      "ScanOptions": [
        "PFP",
        "FS"
],
      "ScanningSequence": "EP",
      "SequenceName": "epfid2d1_116",
      "SequenceVariant": [
        "SK",
        "SS"
],
      "SeriesDescription": "mbep2d_bold_MB3_learn4",
      "SeriesNumber": 9,
      "SeriesTime": "100727.512000",
      "SliceLocation": -66.886345312456,
      "SliceThickness": 1.8999999761581,
      "SmallestImagePixelValue": 0,
      "SoftwareVersions": "syngo MR D13D",
      "SpacingBetweenSlices": 1.9000000164933,
      "SpecificCharacterSet": "ISO_IR 100",
      "StudyID": "1",
      "StudyTime": "090716.166000",
      "TimeOfLastCalibration": ["123723.000000", "123723.000000"],
      "TransmitCoilName": "Body",
      "VariableFlipAngleFlag": "N",
      "WindowCenterWidthExplanation": "Algo1",
      "dBdt": 0.0},
    "slices": {}
  },
  "time": {
    "samples": {
      "AcquisitionNumber": [1, 2, 3, 4, 5, 6, 7, 8, 9, 10, 11, 12, 13, 14, 15, 16, 17, 18, 19, 20, 21, 22, 23, 24, 25, 26, 27, 28, 29, 30, 31, 32, 33, 34, 35, 36, 37, 38, 39, 40, 41, 42, 43, 44, 45, 46, 47, 48, 49, 50, 51, 52, 53, 54, 55, 56, 57, 58, 59, 60, 61, 62, 63, 64, 65, 66, 67, 68, 69, 70, 71, 72, 73, 74, 75, 76, 77, 78, 79, 80, 81, 82, 83, 84, 85, 86, 87, 88, 89, 90, 91, 92, 93, 94, 95, 96, 97, 98, 99, 100, 101, 102, 103, 104, 105, 106, 107, 108, 109, 110, 111, 112, 113, 114, 115, 116, 117, 118, 119, 120, 121, 122, 123, 124, 125, 126, 127, 128, 129, 130, 131, 132, 133, 134, 135, 136, 137, 138, 139, 140, 141, 142, 143, 144, 145, 146, 147, 148, 149, 150, 151, 152, 153, 154, 155, 156, 157, 158, 159, 160, 161, 162, 163, 164, 165, 166, 167, 168, 169, 170, 171, 172, 173, 174, 175, 176, 177, 178, 179, 180, 181, 182, 183, 184, 185, 186, 187, 188, 189, 190, 191, 192, 193, 194, 195, 196, 197, 198, 199, 200, 201, 202, 203, 204, 205, 206, 207, 208, 209, 210, 211, 212, 213, 214, 215, 216, 217, 218],
      "AcquisitionTime": ["100714.967500", "100716.967500", "100718.967500", "100720.967500", "100722.967500", "100724.967500", "100726.967500", "100728.967500", "100730.967500", "100732.967500", "100734.967500", "100736.967500", "100738.967500", "100740.967500", "100742.967500", "100744.967500", "100746.967500", "100748.967500", "100750.967500", "100752.967500", "100754.967500", "100756.967500", "100758.967500", "100800.967500", "100802.967500", "100804.967500", "100806.967500", "100808.967500", "100810.967500", "100812.967500", "100814.967500", "100816.967500", "100818.967500", "100820.967500", "100822.967500", "100824.967500", "100826.967500", "100828.967500", "100830.967500", "100832.967500", "100834.967500", "100836.970000", "100838.970000", "100840.970000", "100842.970000", "100844.970000", "100846.970000", "100848.970000", "100850.970000", "100852.970000", "100854.970000", "100856.970000", "100858.970000", "100900.970000", "100902.970000", "100904.970000", "100906.970000", "100908.970000", "100910.970000", "100912.970000", "100914.970000", "100916.970000", "100918.970000", "100920.970000", "100922.970000", "100924.970000", "100926.970000", "100928.970000", "100930.970000", "100932.970000", "100934.970000", "100936.970000", "100938.970000", "100940.970000", "100942.970000", "100944.970000", "100946.970000", "100948.970000", "100950.970000", "100952.970000", "100954.970000", "100956.970000", "100958.970000", "101000.970000", "101002.970000", "101004.970000", "101006.970000", "101008.970000", "101010.970000", "101012.970000", "101014.970000", "101016.970000", "101018.970000", "101020.970000", "101022.970000", "101024.970000", "101026.970000", "101028.970000", "101030.970000", "101032.970000", "101034.970000", "101036.970000", "101038.970000", "101040.970000", "101042.970000", "101044.970000", "101046.970000", "101048.970000", "101050.970000", "101052.970000", "101054.970000", "101056.970000", "101058.970000", "101100.970000", "101102.970000", "101104.970000", "101106.970000", "101108.970000", "101110.970000", "101112.970000", "101114.970000", "101116.970000", "101118.970000", "101120.970000", "101122.970000", "101124.970000", "101126.970000", "101128.970000", "101130.970000", "101132.970000", "101134.970000", "101136.970000", "101138.970000", "101140.970000", "101142.970000", "101144.970000", "101146.970000", "101148.970000", "101150.970000", "101152.970000", "101154.970000", "101156.970000", "101158.970000", "101200.970000", "101202.970000", "101204.970000", "101206.970000", "101208.970000", "101210.970000", "101212.970000", "101214.970000", "101216.970000", "101218.970000", "101220.970000", "101222.970000", "101224.970000", "101226.970000", "101228.970000", "101230.970000", "101232.970000", "101234.970000", "101236.970000", "101238.970000", "101240.970000", "101242.970000", "101244.970000", "101246.970000", "101248.970000", "101250.970000", "101252.970000", "101254.970000", "101256.970000", "101258.970000", "101300.970000", "101302.970000", "101304.970000", "101306.970000", "101308.970000", "101310.970000", "101312.970000", "101314.970000", "101316.970000", "101318.970000", "101320.970000", "101322.970000", "101324.970000", "101326.970000", "101328.970000", "101330.970000", "101332.970000", "101334.970000", "101336.970000", "101338.970000", "101340.970000", "101342.970000", "101344.970000", "101346.970000", "101348.970000", "101350.970000", "101352.970000", "101354.970000", "101356.970000", "101358.970000", "101400.970000", "101402.970000", "101404.970000", "101406.970000", "101408.970000", "101410.970000", "101412.970000", "101414.970000", "101416.970000", "101418.970000", "101420.970000", "101422.970000", "101424.970000", "101426.970000", "101428.970000"],
      "ContentTime": ["100727.518000", "100728.511000", "100728.515000", "100729.512000", "100729.517000", "100730.510000", "100731.511000", "100731.515000", "100733.512000", "100735.511000", "100737.511000", "100739.511000", "100741.512000", "100743.512000", "100745.511000", "100747.511000", "100749.511000", "100751.511000", "100753.511000", "100755.512000", "100757.511000", "100759.512000", "100801.512000", "100803.512000", "100805.512000", "100807.511000", "100809.510000", "100811.511000", "100813.510000", "100815.511000", "100817.512000", "100819.512000", "100821.512000", "100823.510000", "100825.510000", "100827.511000", "100829.511000", "100831.511000", "100833.511000", "100835.512000", "100837.512000", "100839.512000", "100841.512000", "100843.511000", "100845.511000", "100847.511000", "100849.511000", "100851.513000", "100853.512000", "100855.512000", "100857.511000", "100859.511000", "100901.511000", "100903.511000", "100905.511000", "100907.511000", "100909.512000", "100911.512000", "100913.512000", "100915.511000", "100917.511000", "100919.511000", "100921.510000", "100923.511000", "100925.511000", "100927.513000", "100929.522000", "100931.512000", "100933.511000", "100935.511000", "100937.511000", "100939.511000", "100941.511000", "100943.511000", "100945.512000", "100947.512000", "100949.512000", "100951.511000", "100953.511000", "100955.511000", "100957.511000", "100959.511000", "101001.512000", "101003.512000", "101005.512000", "101007.512000", "101009.511000", "101011.511000", "101013.511000", "101015.512000", "101017.511000", "101019.512000", "101021.512000", "101023.512000", "101025.511000", "101027.511000", "101029.511000", "101031.511000", "101033.511000", "101035.511000", "101037.511000", "101039.512000", "101041.512000", "101043.511000", "101045.511000", "101047.511000", "101049.512000", "101051.511000", "101053.511000", "101055.510000", "101057.512000", "101059.512000", "101101.511000", "101103.511000", "101105.511000", "101107.511000", "101109.511000", "101111.512000", "101113.512000", "101115.512000", "101117.511000", "101119.511000", "101121.510000", "101123.511000", "101125.511000", "101127.511000", "101129.512000", "101131.512000", "101133.512000", "101135.511000", "101137.511000", "101139.511000", "101141.511000", "101143.511000", "101145.511000", "101147.512000", "101149.512000", "101151.512000", "101153.511000", "101155.511000", "101157.511000", "101159.509000", "101201.511000", "101203.512000", "101205.512000", "101207.511000", "101209.512000", "101211.511000", "101213.511000", "101215.511000", "101217.511000", "101219.511000", "101221.512000", "101223.512000", "101225.513000", "101227.512000", "101229.511000", "101231.511000", "101233.511000", "101235.512000", "101237.511000", "101239.512000", "101241.511000", "101243.512000", "101245.511000", "101247.512000", "101249.511000", "101251.511000", "101253.511000", "101255.511000", "101257.512000", "101259.512000", "101301.512000", "101303.511000", "101305.511000", "101307.511000", "101309.512000", "101311.511000", "101313.512000", "101315.512000", "101317.512000", "101319.512000", "101321.512000", "101323.510000", "101325.510000", "101327.511000", "101329.511000", "101331.513000", "101333.512000", "101335.512000", "101337.511000", "101339.511000", "101341.511000", "101343.511000", "101345.511000", "101347.511000", "101349.512000", "101351.512000", "101353.512000", "101355.511000", "101357.511000", "101359.510000", "101401.511000", "101403.512000", "101405.511000", "101407.512000", "101409.512000", "101411.512000", "101413.511000", "101415.512000", "101417.511000", "101419.511000", "101421.511000", "101423.512000", "101425.513000", "101427.512000", "101429.512000", "101431.366000"],
      "InstanceCreationTime": ["100727.518000", "100728.511000", "100728.515000", "100729.512000", "100729.517000", "100730.510000", "100731.511000", "100731.515000", "100733.512000", "100735.511000", "100737.511000", "100739.511000", "100741.512000", "100743.512000", "100745.511000", "100747.511000", "100749.511000", "100751.511000", "100753.511000", "100755.512000", "100757.511000", "100759.512000", "100801.512000", "100803.512000", "100805.512000", "100807.511000", "100809.510000", "100811.511000", "100813.510000", "100815.511000", "100817.512000", "100819.512000", "100821.512000", "100823.510000", "100825.510000", "100827.511000", "100829.511000", "100831.511000", "100833.511000", "100835.512000", "100837.512000", "100839.512000", "100841.512000", "100843.511000", "100845.511000", "100847.511000", "100849.511000", "100851.513000", "100853.512000", "100855.512000", "100857.511000", "100859.511000", "100901.511000", "100903.511000", "100905.511000", "100907.511000", "100909.512000", "100911.512000", "100913.512000", "100915.511000", "100917.511000", "100919.511000", "100921.510000", "100923.511000", "100925.511000", "100927.513000", "100929.522000", "100931.512000", "100933.511000", "100935.511000", "100937.511000", "100939.511000", "100941.511000", "100943.511000", "100945.512000", "100947.512000", "100949.512000", "100951.511000", "100953.511000", "100955.511000", "100957.511000", "100959.511000", "101001.512000", "101003.512000", "101005.512000", "101007.512000", "101009.511000", "101011.511000", "101013.511000", "101015.512000", "101017.511000", "101019.512000", "101021.512000", "101023.512000", "101025.511000", "101027.511000", "101029.511000", "101031.511000", "101033.511000", "101035.511000", "101037.511000", "101039.512000", "101041.512000", "101043.511000", "101045.511000", "101047.511000", "101049.512000", "101051.511000", "101053.511000", "101055.510000", "101057.512000", "101059.512000", "101101.511000", "101103.511000", "101105.511000", "101107.511000", "101109.511000", "101111.512000", "101113.512000", "101115.512000", "101117.511000", "101119.511000", "101121.510000", "101123.511000", "101125.511000", "101127.511000", "101129.512000", "101131.512000", "101133.512000", "101135.511000", "101137.511000", "101139.511000", "101141.511000", "101143.511000", "101145.511000", "101147.512000", "101149.512000", "101151.512000", "101153.511000", "101155.511000", "101157.511000", "101159.509000", "101201.511000", "101203.512000", "101205.512000", "101207.511000", "101209.512000", "101211.511000", "101213.511000", "101215.511000", "101217.511000", "101219.511000", "101221.512000", "101223.512000", "101225.513000", "101227.512000", "101229.511000", "101231.511000", "101233.511000", "101235.512000", "101237.511000", "101239.512000", "101241.511000", "101243.512000", "101245.511000", "101247.512000", "101249.511000", "101251.511000", "101253.511000", "101255.511000", "101257.512000", "101259.512000", "101301.512000", "101303.511000", "101305.511000", "101307.511000", "101309.512000", "101311.511000", "101313.512000", "101315.512000", "101317.512000", "101319.512000", "101321.512000", "101323.510000", "101325.510000", "101327.511000", "101329.511000", "101331.513000", "101333.512000", "101335.512000", "101337.511000", "101339.511000", "101341.511000", "101343.511000", "101345.511000", "101347.511000", "101349.512000", "101351.512000", "101353.512000", "101355.511000", "101357.511000", "101359.510000", "101401.511000", "101403.512000", "101405.511000", "101407.512000", "101409.512000", "101411.512000", "101413.511000", "101415.512000", "101417.511000", "101419.511000", "101421.511000", "101423.512000", "101425.513000", "101427.512000", "101429.512000", "101431.366000"],
      "InstanceNumber": [1, 2, 3, 4, 5, 6, 7, 8, 9, 10, 11, 12, 13, 14, 15, 16, 17, 18, 19, 20, 21, 22, 23, 24, 25, 26, 27, 28, 29, 30, 31, 32, 33, 34, 35, 36, 37, 38, 39, 40, 41, 42, 43, 44, 45, 46, 47, 48, 49, 50, 51, 52, 53, 54, 55, 56, 57, 58, 59, 60, 61, 62, 63, 64, 65, 66, 67, 68, 69, 70, 71, 72, 73, 74, 75, 76, 77, 78, 79, 80, 81, 82, 83, 84, 85, 86, 87, 88, 89, 90, 91, 92, 93, 94, 95, 96, 97, 98, 99, 100, 101, 102, 103, 104, 105, 106, 107, 108, 109, 110, 111, 112, 113, 114, 115, 116, 117, 118, 119, 120, 121, 122, 123, 124, 125, 126, 127, 128, 129, 130, 131, 132, 133, 134, 135, 136, 137, 138, 139, 140, 141, 142, 143, 144, 145, 146, 147, 148, 149, 150, 151, 152, 153, 154, 155, 156, 157, 158, 159, 160, 161, 162, 163, 164, 165, 166, 167, 168, 169, 170, 171, 172, 173, 174, 175, 176, 177, 178, 179, 180, 181, 182, 183, 184, 185, 186, 187, 188, 189, 190, 191, 192, 193, 194, 195, 196, 197, 198, 199, 200, 201, 202, 203, 204, 205, 206, 207, 208, 209, 210, 211, 212, 213, 214, 215, 216, 217, 218],
      "WindowCenter": [17451.0, 17424.0, 17423.0, 17460.0, 17458.0, 17435.0, 17430.0, 17425.0, 17408.0, 17407.0, 17420.0, 17432.0, 17424.0, 17409.0, 17439.0, 17417.0, 17440.0, 17397.0, 17412.0, 17427.0, 17405.0, 17420.0, 17424.0, 17448.0, 17445.0, 17437.0, 17417.0, 17422.0, 17419.0, 17410.0, 17423.0, 17425.0, 17421.0, 17414.0, 17435.0, 17419.0, 17418.0, 17423.0, 17437.0, 17424.0, 17416.0, 17434.0, 17443.0, 17441.0, 17404.0, 17448.0, 17415.0, 17444.0, 17452.0, 17445.0, 17426.0, 17433.0, 17427.0, 17437.0, 17451.0, 17460.0, 17436.0, 17430.0, 17425.0, 17422.0, 17419.0, 17445.0, 17442.0, 17435.0, 17430.0, 17411.0, 17422.0, 17410.0, 17434.0, 17429.0, 17410.0, 17432.0, 17425.0, 17420.0, 17421.0, 17447.0, 17436.0, 17439.0, 17434.0, 17435.0, 17452.0, 17424.0, 17420.0, 17438.0, 17443.0, 17456.0, 17446.0, 17422.0, 17444.0, 17430.0, 17440.0, 17448.0, 17456.0, 17446.0, 17444.0, 17445.0, 17440.0, 17435.0, 17446.0, 17437.0, 17454.0, 17434.0, 17428.0, 17432.0, 17428.0, 17459.0, 17420.0, 17449.0, 17444.0, 17422.0, 17427.0, 17442.0, 17435.0, 17453.0, 17456.0, 17481.0, 17448.0, 17440.0, 17417.0, 17444.0, 17468.0, 17470.0, 17447.0, 17472.0, 17454.0, 17440.0, 17437.0, 17451.0, 17456.0, 17437.0, 17461.0, 17462.0, 17442.0, 17432.0, 17443.0, 17457.0, 17453.0, 17469.0, 17446.0, 17443.0, 17444.0, 17461.0, 17462.0, 17419.0, 17426.0, 17422.0, 17419.0, 17434.0, 17452.0, 17446.0, 17440.0, 17453.0, 17431.0, 17450.0, 17441.0, 17456.0, 17485.0, 17472.0, 17476.0, 17451.0, 17451.0, 17447.0, 17458.0, 17483.0, 17476.0, 17460.0, 17482.0, 17470.0, 17455.0, 17446.0, 17454.0, 17484.0, 17497.0, 17499.0, 17460.0, 17452.0, 17460.0, 17458.0, 17459.0, 17470.0, 17454.0, 17449.0, 17441.0, 17416.0, 17443.0, 17458.0, 17474.0, 17468.0, 17438.0, 17463.0, 17491.0, 17480.0, 17493.0, 17466.0, 17458.0, 17458.0, 17465.0, 17449.0, 17467.0, 17476.0, 17470.0, 17468.0, 17485.0, 17493.0, 17502.0, 17506.0, 17498.0, 17472.0, 17458.0, 17454.0, 17436.0, 17444.0, 17467.0, 17444.0, 17443.0, 17460.0, 17463.0, 17468.0],
      "WindowWidth": [48198.0, 48129.0, 48155.0, 48206.0, 48231.0, 48239.0, 48199.0, 48156.0, 48120.0, 48119.0, 48127.0, 48135.0, 48127.0, 48146.0, 48179.0, 48201.0, 48152.0, 48148.0, 48119.0, 48093.0, 48155.0, 48177.0, 48220.0, 48210.0, 48208.0, 48199.0, 48136.0, 48154.0, 48151.0, 48158.0, 48166.0, 48130.0, 48130.0, 48197.0, 48162.0, 48126.0, 48112.0, 48117.0, 48125.0, 48119.0, 48187.0, 48213.0, 48230.0, 48165.0, 48128.0, 48097.0, 48166.0, 48219.0, 48199.0, 48168.0, 48169.0, 48162.0, 48183.0, 48190.0, 48172.0, 48140.0, 48175.0, 48171.0, 48180.0, 48167.0, 48163.0, 48158.0, 48229.0, 48260.0, 48208.0, 48169.0, 48091.0, 48196.0, 48211.0, 48181.0, 48156.0, 48120.0, 48143.0, 48176.0, 48217.0, 48220.0, 48202.0, 48202.0, 48186.0, 48199.0, 48197.0, 48154.0, 48216.0, 48189.0, 48232.0, 48250.0, 48232.0, 48202.0, 48117.0, 48148.0, 48217.0, 48272.0, 48227.0, 48182.0, 48181.0, 48170.0, 48166.0, 48176.0, 48205.0, 48201.0, 48211.0, 48197.0, 48157.0, 48121.0, 48146.0, 48153.0, 48202.0, 48195.0, 48178.0, 48089.0, 48145.0, 48156.0, 48119.0, 48179.0, 48110.0, 48233.0, 48207.0, 48087.0, 48048.0, 48067.0, 48136.0, 48137.0, 48135.0, 48150.0, 48151.0, 48090.0, 48051.0, 48049.0, 48078.0, 48117.0, 48170.0, 48156.0, 48093.0, 48087.0, 48144.0, 48202.0, 48224.0, 48172.0, 48131.0, 48107.0, 48170.0, 48207.0, 48192.0, 48176.0, 48091.0, 48076.0, 48076.0, 48138.0, 48186.0, 48194.0, 48127.0, 48100.0, 48160.0, 48161.0, 48129.0, 48115.0, 48172.0, 48200.0, 48126.0, 48072.0, 48098.0, 48122.0, 48141.0, 48133.0, 48153.0, 48167.0, 48158.0, 48174.0, 48153.0, 48207.0, 48190.0, 48261.0, 48331.0, 48282.0, 48217.0, 48135.0, 48106.0, 48166.0, 48179.0, 48171.0, 48175.0, 48157.0, 48127.0, 48112.0, 48157.0, 48203.0, 48201.0, 48197.0, 48201.0, 48208.0, 48264.0, 48244.0, 48224.0, 48145.0, 48152.0, 48141.0, 48158.0, 48183.0, 48185.0, 48191.0, 48223.0, 48235.0, 48209.0, 48155.0, 48160.0, 48176.0, 48194.0, 48175.0, 48139.0, 48136.0, 48112.0, 48157.0, 48173.0, 48194.0, 48144.0, 48153.0, 48170.0, 48211.0]
    },
    "slices": {}
  }
}