{
  "AcquisitionMatrixPE": 116,
  "AcquisitionNumber": 1,
  "AcquisitionTime": "10:23:31.857500",
  "BandwidthPerPixelPhaseEncode": 18.539,
  "BaseResolution": 116,
  "BodyPartExamined": "HEAD",
  "ConsistencyInfo": "N4_VD13D_LATEST_20130810",
  "ConversionSoftware": "dcm2niix",
  "ConversionSoftwareVersion": "v1.0.20190410  (JP2:OpenJPEG) (JP-LS:CharLS) GCC5.5.0",
  "DerivedVendorReportedEchoSpacing": 0.000930006,
  "DeviceSerialNumber": "66014",
  "DwellTime": 3e-06,
  "EchoTime": 0.03,
  "EchoTrainLength": 50,
  "EffectiveEchoSpacing": 0.000465003,
  "FlipAngle": 81,
  "ImageComments": "Unaliased_MB3_PE4",
  "ImageOrientationPatientDICOM": [0.999513, -0.0176971, 0.0256874, 0.0209368, 0.991042, -0.131896],
  "ImageType": [
    "ORIGINAL",
    "PRIMARY",
    "M",
    "MB",
    "ND",
    "MOSAIC"
],
  "ImagingFrequency": 123.261,
  "InPlanePhaseEncodingDirectionDICOM": "COL",
  "InstitutionAddress": "Yiheyuan_Road_5_Beijing_Haidian_CN_100871",
  "InstitutionName": "Peking_Univeristy",
  "InstitutionalDepartmentName": "Department",
  "MRAcquisitionType": "2D",
  "MagneticFieldStrength": 3,
  "Manufacturer": "Siemens",
  "ManufacturersModelName": "Prisma",
  "Modality": "MR",
  "MultibandAccelerationFactor": 3,
  "ParallelReductionFactorInPlane": 2,
  "PartialFourier": 0.875,
  "PatientPosition": "HFS",
  "PercentPhaseFOV": 100,
  "PhaseEncodingDirection": "j-",
  "PhaseEncodingSteps": 101,
  "PhaseResolution": 1,
  "PixelBandwidth": 1435,
  "ProcedureStepDescription": "Research_Projects_64CH",
  "ProtocolName": "mbep2d_bold_MB3_learn6",
  "PulseSequenceDetails": "%CustomerSeq%_cmrr_mbep2d_bold",
  "ReceiveCoilActiveElements": "HC1-6",
  "ReceiveCoilName": "HeadNeck_64",
  "ReconMatrixPE": 116,
  "RefLinesPE": 44,
  "RepetitionTime": 2,
  "SAR": 0.0516601,
  "ScanOptions": "PFP_FS",
  "ScanningSequence": "EP",
  "SequenceName": "epfid2d1_116",
  "SequenceVariant": "SK_SS",
  "SeriesDescription": "mbep2d_bold_MB3_learn6",
  "SeriesNumber": 11,
  "ShimSetting": [-3442, -2095, -1978, 382, 1, -122, -57, 11],
  "SliceThickness": 1.9,
  "SliceTiming": [0, 0.9075, 1.815, 0.7425, 1.65, 0.5775, 1.485, 0.4125, 1.32, 0.2475, 1.155, 0.0825, 0.99, 1.8975, 0.825, 1.7325, 0.66, 1.5675, 0.495, 1.4025, 0.33, 1.2375, 0.165, 1.0725, 0, 0.9075, 1.815, 0.7425, 1.65, 0.5775, 1.485, 0.4125, 1.32, 0.2475, 1.155, 0.0825, 0.99, 1.8975, 0.825, 1.7325, 0.66, 1.5675, 0.495, 1.4025, 0.33, 1.2375, 0.165, 1.0725, 0, 0.9075, 1.815, 0.7425, 1.65, 0.5775, 1.485, 0.4125, 1.32, 0.2475, 1.155, 0.0825, 0.99, 1.8975, 0.825, 1.7325, 0.66, 1.5675, 0.495, 1.4025, 0.33, 1.2375, 0.165, 1.0725],
  "SoftwareVersions": "syngo_MR_D13D",
  "SpacingBetweenSlices": 1.9,
  "StationName": "AWP66014",
  "TaskName": "updating",
  "TotalReadoutTime": 0.0534753,
  "TxRefAmp": 226.564,
  "WipMemBlock": "583b0635-a71f-45ef-84a5-288e1ec33d60||Sequence: vd13d/master r/0735857; Nov 19 2014 09:21:40 by eja",
  "dcmmeta_affine": [
    [-1.895628809928894, 0.039707813411951065, 0.043933965265750885, 106.14523315429688],
    [0.03356349840760231, 1.8795632123947144, -0.25150200724601746, -89.95121002197266],
    [0.04871750622987747, 0.2501473128795624, 1.8827683925628662, -81.99115753173828],
    [0.0, 0.0, 0.0, 1.0]
],
  "dcmmeta_reorient_transform": [
    [0.0, -1.0, 0.0, 115.0],
    [1.0, 0.0, 0.0, 0.0],
    [0.0, 0.0, 1.0, 0.0],
    [0.0, 0.0, 0.0, 1.0]
],
  "dcmmeta_shape": [116, 116, 72, 218],
  "dcmmeta_slice_dim": 2,
  "dcmmeta_version": 0.6,
  "global": {
    "const": {
      "AcquisitionMatrix": [116, 0, 0, 116],
      "AngioFlag": "N",
      "BitsAllocated": 16,
      "BitsStored": 16,
      "BodyPartExamined": "HEAD",
      "Columns": 1044,
      "EchoNumbers": 1,
      "EchoTime": 30.0,
      "EchoTrainLength": 50,
      "FlipAngle": 81.0,
      "HighBit": 15,
      "ImageOrientationPatient": [0.99951336601645, -0.0176971173946, 0.02568741307302, 0.02093684636572, 0.99104244738059, -0.1318958526799],
      "ImagePositionPatient": [-1008.7078230866, -982.74245586207, 40.239212799519],
      "ImageType": [
        "ORIGINAL",
        "PRIMARY",
        "M",
        "MB",
        "ND",
        "MOSAIC"
],
      "ImagedNucleus": "1H",
      "ImagingFrequency": 123.260566,
      "InPlanePhaseEncodingDirection": "COL",
      "LargestImagePixelValue": 65535,
      "MRAcquisitionType": "2D",
      "MagneticFieldStrength": 3.0,
      "Manufacturer": "SIEMENS",
      "ManufacturerModelName": "Prisma",
      "Modality": "MR",
      "NumberOfAverages": 1.0,
      "NumberOfPhaseEncodingSteps": 101,
      "PercentPhaseFieldOfView": 100.0,
      "PercentSampling": 100.0,
      "PerformedProcedureStepStartTime": "090716.229000",
      "PhotometricInterpretation": "MONOCHROME2",
      "PixelBandwidth": 1435.0,
      "PixelRepresentation": 0,
      "PixelSpacing": [1.8965517282486, 1.8965517282486],
      "ProtocolName": "mbep2d_bold_MB3_learn6",
      "RepetitionTime": 2000.0,
      "Rows": 1044,
      "SAR": 0.05166009640782,
      "SamplesPerPixel": 1,
      "ScanOptions": [
        "PFP",
        "FS"
],
      "ScanningSequence": "EP",
      "SequenceName": "epfid2d1_116",
      "SequenceVariant": [
        "SK",
        "SS"
],
      "SeriesDescription": "mbep2d_bold_MB3_learn6",
      "SeriesNumber": 11,
      "SeriesTime": "102344.156000",
      "SliceLocation": -66.886345312456,
      "SliceThickness": 1.8999999761581,
      "SmallestImagePixelValue": 0,
      "SoftwareVersions": "syngo MR D13D",
      "SpacingBetweenSlices": 1.9000000164933,
      "SpecificCharacterSet": "ISO_IR 100",
      "StudyID": "1",
      "StudyTime": "090716.166000",
      "TimeOfLastCalibration": ["123723.000000", "123723.000000"],
      "TransmitCoilName": "Body",
      "VariableFlipAngleFlag": "N",
      "WindowCenterWidthExplanation": "Algo1",
      "dBdt": 0.0},
    "slices": {}
  },
  "time": {
    "samples": {
      "AcquisitionNumber": [1, 2, 3, 4, 5, 6, 7, 8, 9, 10, 11, 12, 13, 14, 15, 16, 17, 18, 19, 20, 21, 22, 23, 24, 25, 26, 27, 28, 29, 30, 31, 32, 33, 34, 35, 36, 37, 38, 39, 40, 41, 42, 43, 44, 45, 46, 47, 48, 49, 50, 51, 52, 53, 54, 55, 56, 57, 58, 59, 60, 61, 62, 63, 64, 65, 66, 67, 68, 69, 70, 71, 72, 73, 74, 75, 76, 77, 78, 79, 80, 81, 82, 83, 84, 85, 86, 87, 88, 89, 90, 91, 92, 93, 94, 95, 96, 97, 98, 99, 100, 101, 102, 103, 104, 105, 106, 107, 108, 109, 110, 111, 112, 113, 114, 115, 116, 117, 118, 119, 120, 121, 122, 123, 124, 125, 126, 127, 128, 129, 130, 131, 132, 133, 134, 135, 136, 137, 138, 139, 140, 141, 142, 143, 144, 145, 146, 147, 148, 149, 150, 151, 152, 153, 154, 155, 156, 157, 158, 159, 160, 161, 162, 163, 164, 165, 166, 167, 168, 169, 170, 171, 172, 173, 174, 175, 176, 177, 178, 179, 180, 181, 182, 183, 184, 185, 186, 187, 188, 189, 190, 191, 192, 193, 194, 195, 196, 197, 198, 199, 200, 201, 202, 203, 204, 205, 206, 207, 208, 209, 210, 211, 212, 213, 214, 215, 216, 217, 218],
      "AcquisitionTime": ["102331.857500", "102333.857500", "102335.857500", "102337.857500", "102339.857500", "102341.857500", "102343.857500", "102345.857500", "102347.857500", "102349.857500", "102351.857500", "102353.857500", "102355.857500", "102357.857500", "102359.857500", "102401.857500", "102403.857500", "102405.857500", "102407.857500", "102409.857500", "102411.857500", "102413.857500", "102415.857500", "102417.857500", "102419.857500", "102421.857500", "102423.857500", "102425.857500", "102427.857500", "102429.857500", "102431.857500", "102433.857500", "102435.857500", "102437.857500", "102439.857500", "102441.857500", "102443.857500", "102445.857500", "102447.857500", "102449.857500", "102451.857500", "102453.857500", "102455.857500", "102457.857500", "102459.857500", "102501.857500", "102503.857500", "102505.857500", "102507.860000", "102509.860000", "102511.860000", "102513.860000", "102515.860000", "102517.860000", "102519.860000", "102521.860000", "102523.860000", "102525.860000", "102527.860000", "102529.860000", "102531.860000", "102533.860000", "102535.860000", "102537.860000", "102539.860000", "102541.860000", "102543.860000", "102545.860000", "102547.860000", "102549.860000", "102551.860000", "102553.860000", "102555.860000", "102557.860000", "102559.860000", "102601.860000", "102603.860000", "102605.860000", "102607.860000", "102609.860000", "102611.860000", "102613.860000", "102615.860000", "102617.860000", "102619.860000", "102621.860000", "102623.860000", "102625.860000", "102627.860000", "102629.860000", "102631.860000", "102633.860000", "102635.860000", "102637.860000", "102639.860000", "102641.860000", "102643.860000", "102645.860000", "102647.860000", "102649.860000", "102651.860000", "102653.860000", "102655.860000", "102657.860000", "102659.860000", "102701.860000", "102703.860000", "102705.860000", "102707.860000", "102709.860000", "102711.860000", "102713.860000", "102715.860000", "102717.860000", "102719.860000", "102721.860000", "102723.860000", "102725.860000", "102727.860000", "102729.860000", "102731.860000", "102733.860000", "102735.860000", "102737.860000", "102739.860000", "102741.860000", "102743.860000", "102745.860000", "102747.860000", "102749.860000", "102751.860000", "102753.860000", "102755.860000", "102757.860000", "102759.860000", "102801.860000", "102803.860000", "102805.860000", "102807.860000", "102809.860000", "102811.860000", "102813.860000", "102815.860000", "102817.860000", "102819.860000", "102821.860000", "102823.860000", "102825.860000", "102827.860000", "102829.860000", "102831.860000", "102833.860000", "102835.860000", "102837.860000", "102839.860000", "102841.860000", "102843.860000", "102845.860000", "102847.860000", "102849.860000", "102851.860000", "102853.860000", "102855.860000", "102857.860000", "102859.860000", "102901.860000", "102903.860000", "102905.860000", "102907.860000", "102909.860000", "102911.860000", "102913.860000", "102915.860000", "102917.860000", "102919.860000", "102921.860000", "102923.860000", "102925.860000", "102927.860000", "102929.860000", "102931.860000", "102933.860000", "102935.860000", "102937.860000", "102939.860000", "102941.860000", "102943.860000", "102945.860000", "102947.860000", "102949.860000", "102951.860000", "102953.860000", "102955.860000", "102957.860000", "102959.860000", "103001.860000", "103003.860000", "103005.860000", "103007.860000", "103009.860000", "103011.860000", "103013.860000", "103015.860000", "103017.860000", "103019.860000", "103021.860000", "103023.860000", "103025.860000", "103027.860000", "103029.860000", "103031.860000", "103033.860000", "103035.860000", "103037.860000", "103039.860000", "103041.860000", "103043.860000", "103045.860000"],
      "ContentTime": ["102344.161000", "102345.155000", "102346.155000", "102346.159000", "102347.156000", "102347.160000", "102348.155000", "102349.156000", "102351.156000", "102353.156000", "102355.155000", "102357.155000", "102359.155000", "102401.156000", "102403.156000", "102405.156000", "102407.156000", "102409.156000", "102411.155000", "102413.155000", "102415.155000", "102417.155000", "102419.156000", "102421.157000", "102423.156000", "102425.156000", "102427.156000", "102429.156000", "102431.155000", "102433.155000", "102435.155000", "102437.156000", "102439.156000", "102441.156000", "102443.156000", "102445.156000", "102447.155000", "102449.155000", "102451.155000", "102453.156000", "102455.156000", "102457.157000", "102459.156000", "102501.156000", "102503.156000", "102505.155000", "102507.155000", "102509.155000", "102511.156000", "102513.155000", "102515.157000", "102517.156000", "102519.156000", "102521.155000", "102523.155000", "102525.155000", "102527.155000", "102529.156000", "102531.156000", "102533.156000", "102535.156000", "102537.156000", "102539.155000", "102541.153000", "102543.155000", "102545.156000", "102547.156000", "102549.156000", "102551.156000", "102553.156000", "102555.155000", "102557.155000", "102559.155000", "102601.155000", "102603.156000", "102605.156000", "102607.157000", "102609.156000", "102611.155000", "102613.156000", "102615.155000", "102617.154000", "102619.155000", "102621.156000", "102623.156000", "102625.156000", "102627.156000", "102629.157000", "102631.155000", "102633.155000", "102635.156000", "102637.155000", "102639.156000", "102641.156000", "102643.156000", "102645.155000", "102647.157000", "102649.155000", "102651.155000", "102653.163000", "102655.156000", "102657.156000", "102659.155000", "102701.156000", "102703.156000", "102705.156000", "102707.155000", "102709.155000", "102711.155000", "102713.156000", "102715.156000", "102717.156000", "102719.156000", "102721.156000", "102723.156000", "102725.155000", "102727.155000", "102729.155000", "102731.156000", "102733.156000", "102735.156000", "102737.156000", "102739.155000", "102741.155000", "102743.155000", "102745.155000", "102747.156000", "102749.156000", "102751.156000", "102753.156000", "102755.156000", "102757.156000", "102759.155000", "102801.156000", "102803.155000", "102805.156000", "102807.157000", "102809.156000", "102811.156000", "102813.155000", "102815.156000", "102817.155000", "102819.155000", "102821.155000", "102823.156000", "102825.156000", "102827.156000", "102829.156000", "102831.156000", "102833.156000", "102835.155000", "102837.155000", "102839.155000", "102841.156000", "102843.156000", "102845.156000", "102847.156000", "102849.156000", "102851.155000", "102853.155000", "102855.155000", "102857.155000", "102859.156000", "102901.156000", "102903.156000", "102905.156000", "102907.156000", "102909.155000", "102911.155000", "102913.155000", "102915.155000", "102917.156000", "102919.156000", "102921.156000", "102923.156000", "102925.156000", "102927.156000", "102929.156000", "102931.154000", "102933.155000", "102935.156000", "102937.156000", "102939.156000", "102941.156000", "102943.156000", "102945.155000", "102947.155000", "102949.156000", "102951.156000", "102953.156000", "102955.155000", "102957.156000", "102959.156000", "103001.156000", "103003.155000", "103005.155000", "103007.155000", "103009.156000", "103011.157000", "103013.156000", "103015.156000", "103017.156000", "103019.155000", "103021.156000", "103023.155000", "103025.156000", "103027.156000", "103029.156000", "103031.156000", "103033.156000", "103035.156000", "103037.155000", "103039.155000", "103041.155000", "103043.156000", "103045.156000", "103047.156000", "103048.903000"],
      "InstanceCreationTime": ["102344.161000", "102345.155000", "102346.155000", "102346.159000", "102347.156000", "102347.160000", "102348.155000", "102349.156000", "102351.156000", "102353.156000", "102355.155000", "102357.155000", "102359.155000", "102401.156000", "102403.156000", "102405.156000", "102407.156000", "102409.156000", "102411.155000", "102413.155000", "102415.155000", "102417.155000", "102419.156000", "102421.157000", "102423.156000", "102425.156000", "102427.156000", "102429.156000", "102431.155000", "102433.155000", "102435.155000", "102437.156000", "102439.156000", "102441.156000", "102443.156000", "102445.156000", "102447.155000", "102449.155000", "102451.155000", "102453.156000", "102455.156000", "102457.157000", "102459.156000", "102501.156000", "102503.156000", "102505.155000", "102507.155000", "102509.155000", "102511.156000", "102513.155000", "102515.157000", "102517.156000", "102519.156000", "102521.155000", "102523.155000", "102525.155000", "102527.155000", "102529.156000", "102531.156000", "102533.156000", "102535.156000", "102537.156000", "102539.155000", "102541.153000", "102543.155000", "102545.156000", "102547.156000", "102549.156000", "102551.156000", "102553.156000", "102555.155000", "102557.155000", "102559.155000", "102601.155000", "102603.156000", "102605.156000", "102607.157000", "102609.156000", "102611.155000", "102613.156000", "102615.155000", "102617.154000", "102619.155000", "102621.156000", "102623.156000", "102625.156000", "102627.156000", "102629.157000", "102631.155000", "102633.155000", "102635.156000", "102637.155000", "102639.156000", "102641.156000", "102643.156000", "102645.155000", "102647.157000", "102649.155000", "102651.155000", "102653.163000", "102655.156000", "102657.156000", "102659.155000", "102701.156000", "102703.156000", "102705.156000", "102707.155000", "102709.155000", "102711.155000", "102713.156000", "102715.156000", "102717.156000", "102719.156000", "102721.156000", "102723.156000", "102725.155000", "102727.155000", "102729.155000", "102731.156000", "102733.156000", "102735.156000", "102737.156000", "102739.155000", "102741.155000", "102743.155000", "102745.155000", "102747.156000", "102749.156000", "102751.156000", "102753.156000", "102755.156000", "102757.156000", "102759.155000", "102801.156000", "102803.155000", "102805.156000", "102807.157000", "102809.156000", "102811.156000", "102813.155000", "102815.156000", "102817.155000", "102819.155000", "102821.155000", "102823.156000", "102825.156000", "102827.156000", "102829.156000", "102831.156000", "102833.156000", "102835.155000", "102837.155000", "102839.155000", "102841.156000", "102843.156000", "102845.156000", "102847.156000", "102849.156000", "102851.155000", "102853.155000", "102855.155000", "102857.155000", "102859.156000", "102901.156000", "102903.156000", "102905.156000", "102907.156000", "102909.155000", "102911.155000", "102913.155000", "102915.155000", "102917.156000", "102919.156000", "102921.156000", "102923.156000", "102925.156000", "102927.156000", "102929.156000", "102931.154000", "102933.155000", "102935.156000", "102937.156000", "102939.156000", "102941.156000", "102943.156000", "102945.155000", "102947.155000", "102949.156000", "102951.156000", "102953.156000", "102955.155000", "102957.156000", "102959.156000", "103001.156000", "103003.155000", "103005.155000", "103007.155000", "103009.156000", "103011.157000", "103013.156000", "103015.156000", "103017.156000", "103019.155000", "103021.156000", "103023.155000", "103025.156000", "103027.156000", "103029.156000", "103031.156000", "103033.156000", "103035.156000", "103037.155000", "103039.155000", "103041.155000", "103043.156000", "103045.156000", "103047.156000", "103048.903000"],
      "InstanceNumber": [1, 2, 3, 4, 5, 6, 7, 8, 9, 10, 11, 12, 13, 14, 15, 16, 17, 18, 19, 20, 21, 22, 23, 24, 25, 26, 27, 28, 29, 30, 31, 32, 33, 34, 35, 36, 37, 38, 39, 40, 41, 42, 43, 44, 45, 46, 47, 48, 49, 50, 51, 52, 53, 54, 55, 56, 57, 58, 59, 60, 61, 62, 63, 64, 65, 66, 67, 68, 69, 70, 71, 72, 73, 74, 75, 76, 77, 78, 79, 80, 81, 82, 83, 84, 85, 86, 87, 88, 89, 90, 91, 92, 93, 94, 95, 96, 97, 98, 99, 100, 101, 102, 103, 104, 105, 106, 107, 108, 109, 110, 111, 112, 113, 114, 115, 116, 117, 118, 119, 120, 121, 122, 123, 124, 125, 126, 127, 128, 129, 130, 131, 132, 133, 134, 135, 136, 137, 138, 139, 140, 141, 142, 143, 144, 145, 146, 147, 148, 149, 150, 151, 152, 153, 154, 155, 156, 157, 158, 159, 160, 161, 162, 163, 164, 165, 166, 167, 168, 169, 170, 171, 172, 173, 174, 175, 176, 177, 178, 179, 180, 181, 182, 183, 184, 185, 186, 187, 188, 189, 190, 191, 192, 193, 194, 195, 196, 197, 198, 199, 200, 201, 202, 203, 204, 205, 206, 207, 208, 209, 210, 211, 212, 213, 214, 215, 216, 217, 218],
      "WindowCenter": [17513.0, 17532.0, 17565.0, 17550.0, 17527.0, 17495.0, 17510.0, 17501.0, 17497.0, 17497.0, 17491.0, 17481.0, 17474.0, 17466.0, 17473.0, 17471.0, 17499.0, 17481.0, 17483.0, 17477.0, 17482.0, 17503.0, 17485.0, 17480.0, 17487.0, 17498.0, 17497.0, 17480.0, 17455.0, 17474.0, 17472.0, 17486.0, 17454.0, 17433.0, 17455.0, 17460.0, 17458.0, 17464.0, 17493.0, 17462.0, 17468.0, 17450.0, 17470.0, 17451.0, 17436.0, 17426.0, 17418.0, 17441.0, 17428.0, 17444.0, 17449.0, 17425.0, 17434.0, 17434.0, 17453.0, 17469.0, 17460.0, 17461.0, 17441.0, 17426.0, 17442.0, 17449.0, 17462.0, 17456.0, 17476.0, 17461.0, 17463.0, 17443.0, 17472.0, 17489.0, 17462.0, 17460.0, 17451.0, 17463.0, 17466.0, 17474.0, 17448.0, 17474.0, 17492.0, 17476.0, 17490.0, 17476.0, 17457.0, 17448.0, 17451.0, 17462.0, 17481.0, 17465.0, 17492.0, 17491.0, 17471.0, 17482.0, 17467.0, 17474.0, 17492.0, 17495.0, 17490.0, 17482.0, 17497.0, 17483.0, 17486.0, 17495.0, 17493.0, 17492.0, 17485.0, 17465.0, 17484.0, 17485.0, 17501.0, 17496.0, 17485.0, 17498.0, 17498.0, 17480.0, 17501.0, 17489.0, 17482.0, 17473.0, 17479.0, 17464.0, 17483.0, 17496.0, 17482.0, 17489.0, 17493.0, 17502.0, 17493.0, 17488.0, 17493.0, 17519.0, 17508.0, 17511.0, 17497.0, 17484.0, 17490.0, 17478.0, 17505.0, 17499.0, 17473.0, 17489.0, 17487.0, 17493.0, 17503.0, 17492.0, 17496.0, 17485.0, 17480.0, 17491.0, 17480.0, 17479.0, 17476.0, 17477.0, 17487.0, 17476.0, 17461.0, 17464.0, 17459.0, 17457.0, 17487.0, 17492.0, 17464.0, 17466.0, 17459.0, 17475.0, 17473.0, 17498.0, 17482.0, 17465.0, 17473.0, 17477.0, 17482.0, 17490.0, 17487.0, 17479.0, 17473.0, 17490.0, 17471.0, 17485.0, 17470.0, 17488.0, 17485.0, 17489.0, 17496.0, 17489.0, 17492.0, 17484.0, 17475.0, 17463.0, 17498.0, 17506.0, 17487.0, 17475.0, 17476.0, 17490.0, 17479.0, 17492.0, 17497.0, 17497.0, 17448.0, 17464.0, 17487.0, 17484.0, 17491.0, 17460.0, 17530.0, 17519.0, 17515.0, 17519.0, 17516.0, 17503.0, 17476.0, 17464.0, 17456.0, 17447.0, 17436.0, 17462.0, 17480.0, 17471.0],
      "WindowWidth": [48261.0, 48246.0, 48221.0, 48173.0, 48156.0, 48122.0, 48144.0, 48186.0, 48184.0, 48170.0, 48141.0, 48107.0, 48066.0, 48072.0, 48052.0, 48051.0, 48084.0, 48110.0, 48098.0, 48083.0, 48099.0, 48099.0, 48111.0, 48146.0, 48138.0, 48169.0, 48131.0, 48068.0, 48050.0, 48090.0, 48140.0, 48085.0, 48051.0, 47953.0, 48016.0, 48047.0, 48070.0, 48113.0, 48058.0, 48060.0, 47975.0, 47925.0, 47939.0, 47937.0, 47900.0, 47845.0, 47864.0, 47907.0, 47910.0, 47923.0, 47952.0, 47972.0, 47954.0, 48017.0, 48078.0, 48089.0, 48106.0, 48083.0, 48041.0, 48032.0, 48032.0, 48048.0, 48047.0, 48043.0, 48080.0, 48098.0, 48062.0, 48074.0, 48082.0, 48065.0, 48008.0, 47982.0, 48013.0, 48084.0, 48138.0, 48068.0, 48036.0, 48043.0, 48079.0, 48094.0, 48102.0, 48079.0, 48066.0, 48024.0, 48037.0, 48058.0, 48084.0, 48111.0, 48106.0, 48067.0, 48016.0, 48037.0, 48040.0, 48068.0, 48068.0, 48059.0, 48029.0, 48038.0, 48049.0, 48074.0, 48065.0, 48032.0, 48019.0, 48004.0, 48025.0, 48074.0, 48061.0, 48061.0, 48061.0, 48082.0, 48077.0, 48085.0, 48110.0, 48047.0, 47971.0, 47951.0, 47933.0, 47901.0, 47894.0, 47971.0, 48011.0, 48068.0, 48060.0, 48052.0, 48030.0, 48049.0, 48042.0, 48039.0, 48030.0, 48062.0, 48154.0, 48167.0, 48145.0, 48123.0, 48138.0, 48157.0, 48112.0, 48072.0, 48080.0, 48102.0, 48103.0, 48132.0, 48176.0, 48168.0, 48142.0, 48086.0, 48096.0, 48077.0, 48121.0, 48120.0, 48042.0, 48019.0, 48063.0, 48104.0, 48068.0, 48033.0, 48006.0, 48017.0, 48013.0, 48030.0, 48024.0, 48035.0, 48031.0, 48028.0, 48080.0, 48058.0, 48008.0, 47960.0, 47989.0, 48033.0, 48037.0, 48064.0, 48039.0, 48044.0, 48065.0, 48040.0, 48053.0, 48064.0, 48089.0, 48063.0, 48112.0, 48114.0, 48094.0, 48075.0, 48041.0, 48060.0, 48081.0, 48123.0, 48146.0, 48101.0, 48075.0, 48055.0, 48053.0, 48053.0, 48082.0, 48128.0, 48129.0, 48055.0, 48008.0, 48046.0, 48124.0, 48122.0, 48063.0, 48019.0, 48134.0, 48076.0, 48085.0, 48061.0, 48034.0, 48011.0, 47927.0, 47856.0, 47839.0, 47845.0, 47837.0, 47881.0, 47944.0, 48013.0]
    },
    "slices": {}
  }
}