{
  "AcquisitionMatrixPE": 116,
  "AcquisitionNumber": 1,
  "AcquisitionTime": "13:40:44.642500",
  "BandwidthPerPixelPhaseEncode": 18.539,
  "BaseResolution": 116,
  "BodyPartExamined": "HEAD",
  "ConsistencyInfo": "N4_VD13D_LATEST_20130810",
  "ConversionSoftware": "dcm2niix",
  "ConversionSoftwareVersion": "v1.0.20190410  (JP2:OpenJPEG) (JP-LS:CharLS) GCC5.5.0",
  "DerivedVendorReportedEchoSpacing": 0.000930006,
  "DeviceSerialNumber": "66014",
  "DwellTime": 3e-06,
  "EchoTime": 0.03,
  "EchoTrainLength": 50,
  "EffectiveEchoSpacing": 0.000465003,
  "FlipAngle": 81,
  "ImageComments": "Unaliased_MB3_PE4",
  "ImageOrientationPatientDICOM": [0.999936, 0.00397604, 0.0105985, -0.0034905, 0.998961, -0.0454437],
  "ImageType": [
    "ORIGINAL",
    "PRIMARY",
    "M",
    "MB",
    "ND",
    "MOSAIC"
],
  "ImagingFrequency": 123.261,
  "InPlanePhaseEncodingDirectionDICOM": "COL",
  "InstitutionAddress": "Yiheyuan_Road_5_Beijing_Haidian_CN_100871",
  "InstitutionName": "Peking_Univeristy",
  "InstitutionalDepartmentName": "Department",
  "MRAcquisitionType": "2D",
  "MagneticFieldStrength": 3,
  "Manufacturer": "Siemens",
  "ManufacturersModelName": "Prisma",
  "Modality": "MR",
  "MultibandAccelerationFactor": 3,
  "ParallelReductionFactorInPlane": 2,
  "PartialFourier": 0.875,
  "PatientPosition": "HFS",
  "PercentPhaseFOV": 100,
  "PhaseEncodingDirection": "j-",
  "PhaseEncodingSteps": 101,
  "PhaseResolution": 1,
  "PixelBandwidth": 1435,
  "ProcedureStepDescription": "Research_Projects_64CH",
  "ProtocolName": "mbep2d_bold_MB3_test3",
  "PulseSequenceDetails": "%CustomerSeq%_cmrr_mbep2d_bold",
  "ReceiveCoilActiveElements": "HC1-6",
  "ReceiveCoilName": "HeadNeck_64",
  "ReconMatrixPE": 116,
  "RefLinesPE": 44,
  "RepetitionTime": 2,
  "SAR": 0.0550759,
  "ScanOptions": "PFP_FS",
  "ScanningSequence": "EP",
  "SequenceName": "epfid2d1_116",
  "SequenceVariant": "SK_SS",
  "SeriesDescription": "mbep2d_bold_MB3_test3",
  "SeriesNumber": 8,
  "ShimSetting": [-3451, -2107, -1928, 377, -4, -232, 66, 7],
  "SliceThickness": 1.9,
  "SliceTiming": [0, 0.9075, 1.815, 0.7425, 1.65, 0.5775, 1.485, 0.4125, 1.32, 0.2475, 1.155, 0.0825, 0.99, 1.8975, 0.825, 1.7325, 0.66, 1.5675, 0.495, 1.4025, 0.33, 1.2375, 0.165, 1.0725, 0, 0.9075, 1.815, 0.7425, 1.65, 0.5775, 1.485, 0.4125, 1.32, 0.2475, 1.155, 0.0825, 0.99, 1.8975, 0.825, 1.7325, 0.66, 1.5675, 0.495, 1.4025, 0.33, 1.2375, 0.165, 1.0725, 0, 0.9075, 1.815, 0.7425, 1.65, 0.5775, 1.485, 0.4125, 1.32, 0.2475, 1.155, 0.0825, 0.99, 1.8975, 0.825, 1.7325, 0.66, 1.5675, 0.495, 1.4025, 0.33, 1.2375, 0.165, 1.0725],
  "SoftwareVersions": "syngo_MR_D13D",
  "SpacingBetweenSlices": 1.9,
  "StationName": "AWP66014",
  "TaskName": "retrieval",
  "TotalReadoutTime": 0.0534753,
  "TxRefAmp": 222.44,
  "WipMemBlock": "d595d62d-16dc-4b2c-a6ca-b4179ac601d7||Sequence: vd13d/master r/0735857; Nov 19 2014 09:21:40 by eja",
  "dcmmeta_affine": [
    [-1.896430253982544, -0.006619911175221205, 0.0204596146941185, 109.2906494140625],
    [-0.0075407736003398895, 1.8945808410644531, -0.08626727759838104, -94.71525573730469],
    [0.02010069042444229, 0.08618639409542084, 1.8979302644729614, -77.83920288085938],
    [0.0, 0.0, 0.0, 1.0]
],
  "dcmmeta_reorient_transform": [
    [0.0, -1.0, 0.0, 115.0],
    [1.0, 0.0, 0.0, 0.0],
    [0.0, 0.0, 1.0, 0.0],
    [0.0, 0.0, 0.0, 1.0]
],
  "dcmmeta_shape": [116, 116, 72, 289],
  "dcmmeta_slice_dim": 2,
  "dcmmeta_version": 0.6,
  "global": {
    "const": {
      "AcquisitionMatrix": [116, 0, 0, 116],
      "AngioFlag": "N",
      "BitsAllocated": 16,
      "BitsStored": 16,
      "BodyPartExamined": "HEAD",
      "Columns": 1044,
      "EchoNumbers": 1,
      "EchoTime": 30.0,
      "EchoTrainLength": 50,
      "FlipAngle": 81.0,
      "HighBit": 15,
      "ImageOrientationPatient": [0.9999359289, 0.00397604428292, 0.01059854550227, -0.0034904985294, 0.99896080170968, -0.045443735185],
      "ImagePositionPatient": [-985.40134234647, -1005.7459692172, -37.264004326866],
      "ImageType": [
        "ORIGINAL",
        "PRIMARY",
        "M",
        "MB",
        "ND",
        "MOSAIC"
],
      "ImagedNucleus": "1H",
      "ImagingFrequency": 123.260562,
      "InPlanePhaseEncodingDirection": "COL",
      "LargestImagePixelValue": 65535,
      "MRAcquisitionType": "2D",
      "MagneticFieldStrength": 3.0,
      "Manufacturer": "SIEMENS",
      "ManufacturerModelName": "Prisma",
      "Modality": "MR",
      "NumberOfAverages": 1.0,
      "NumberOfPhaseEncodingSteps": 101,
      "PercentPhaseFieldOfView": 100.0,
      "PercentSampling": 100.0,
      "PerformedProcedureStepStartTime": "130757.196000",
      "PhotometricInterpretation": "MONOCHROME2",
      "PixelBandwidth": 1435.0,
      "PixelRepresentation": 0,
      "PixelSpacing": [1.8965517282486, 1.8965517282486],
      "ProtocolName": "mbep2d_bold_MB3_test3",
      "RepetitionTime": 2000.0,
      "Rows": 1044,
      "SAR": 0.05507589543499,
      "SamplesPerPixel": 1,
      "ScanOptions": [
        "PFP",
        "FS"
],
      "ScanningSequence": "EP",
      "SequenceName": "epfid2d1_116",
      "SequenceVariant": [
        "SK",
        "SS"
],
      "SeriesDescription": "mbep2d_bold_MB3_test3",
      "SeriesNumber": 8,
      "SeriesTime": "134055.660000",
      "SliceLocation": -72.277113799743,
      "SliceThickness": 1.8999999761581,
      "SmallestImagePixelValue": 0,
      "SoftwareVersions": "syngo MR D13D",
      "SpacingBetweenSlices": 1.9000000228497,
      "SpecificCharacterSet": "ISO_IR 100",
      "StudyID": "1",
      "StudyTime": "130757.111000",
      "TimeOfLastCalibration": ["123723.000000", "123723.000000"],
      "TransmitCoilName": "Body",
      "VariableFlipAngleFlag": "N",
      "WindowCenterWidthExplanation": "Algo1",
      "dBdt": 0.0},
    "slices": {}
  },
  "time": {
    "samples": {
      "AcquisitionNumber": [1, 2, 3, 4, 5, 6, 7, 8, 9, 10, 11, 12, 13, 14, 15, 16, 17, 18, 19, 20, 21, 22, 23, 24, 25, 26, 27, 28, 29, 30, 31, 32, 33, 34, 35, 36, 37, 38, 39, 40, 41, 42, 43, 44, 45, 46, 47, 48, 49, 50, 51, 52, 53, 54, 55, 56, 57, 58, 59, 60, 61, 62, 63, 64, 65, 66, 67, 68, 69, 70, 71, 72, 73, 74, 75, 76, 77, 78, 79, 80, 81, 82, 83, 84, 85, 86, 87, 88, 89, 90, 91, 92, 93, 94, 95, 96, 97, 98, 99, 100, 101, 102, 103, 104, 105, 106, 107, 108, 109, 110, 111, 112, 113, 114, 115, 116, 117, 118, 119, 120, 121, 122, 123, 124, 125, 126, 127, 128, 129, 130, 131, 132, 133, 134, 135, 136, 137, 138, 139, 140, 141, 142, 143, 144, 145, 146, 147, 148, 149, 150, 151, 152, 153, 154, 155, 156, 157, 158, 159, 160, 161, 162, 163, 164, 165, 166, 167, 168, 169, 170, 171, 172, 173, 174, 175, 176, 177, 178, 179, 180, 181, 182, 183, 184, 185, 186, 187, 188, 189, 190, 191, 192, 193, 194, 195, 196, 197, 198, 199, 200, 201, 202, 203, 204, 205, 206, 207, 208, 209, 210, 211, 212, 213, 214, 215, 216, 217, 218, 219, 220, 221, 222, 223, 224, 225, 226, 227, 228, 229, 230, 231, 232, 233, 234, 235, 236, 237, 238, 239, 240, 241, 242, 243, 244, 245, 246, 247, 248, 249, 250, 251, 252, 253, 254, 255, 256, 257, 258, 259, 260, 261, 262, 263, 264, 265, 266, 267, 268, 269, 270, 271, 272, 273, 274, 275, 276, 277, 278, 279, 280, 281, 282, 283, 284, 285, 286, 287, 288, 289],
      "AcquisitionTime": ["134044.642500", "134046.642500", "134048.642500", "134050.642500", "134052.642500", "134054.642500", "134056.642500", "134058.642500", "134100.642500", "134102.642500", "134104.642500", "134106.642500", "134108.642500", "134110.642500", "134112.642500", "134114.642500", "134116.642500", "134118.642500", "134120.642500", "134122.642500", "134124.642500", "134126.642500", "134128.642500", "134130.642500", "134132.642500", "134134.642500", "134136.642500", "134138.642500", "134140.642500", "134142.642500", "134144.642500", "134146.642500", "134148.642500", "134150.642500", "134152.645000", "134154.645000", "134156.645000", "134158.645000", "134200.645000", "134202.645000", "134204.645000", "134206.645000", "134208.645000", "134210.645000", "134212.645000", "134214.645000", "134216.645000", "134218.645000", "134220.645000", "134222.645000", "134224.645000", "134226.645000", "134228.645000", "134230.645000", "134232.645000", "134234.645000", "134236.645000", "134238.645000", "134240.645000", "134242.645000", "134244.645000", "134246.645000", "134248.645000", "134250.645000", "134252.645000", "134254.645000", "134256.645000", "134258.645000", "134300.645000", "134302.645000", "134304.645000", "134306.645000", "134308.645000", "134310.645000", "134312.645000", "134314.645000", "134316.645000", "134318.645000", "134320.645000", "134322.645000", "134324.645000", "134326.645000", "134328.645000", "134330.645000", "134332.645000", "134334.645000", "134336.645000", "134338.645000", "134340.645000", "134342.645000", "134344.645000", "134346.645000", "134348.645000", "134350.645000", "134352.645000", "134354.645000", "134356.645000", "134358.645000", "134400.645000", "134402.645000", "134404.645000", "134406.645000", "134408.645000", "134410.645000", "134412.645000", "134414.645000", "134416.645000", "134418.645000", "134420.645000", "134422.645000", "134424.645000", "134426.645000", "134428.645000", "134430.645000", "134432.645000", "134434.645000", "134436.645000", "134438.645000", "134440.645000", "134442.645000", "134444.645000", "134446.645000", "134448.645000", "134450.645000", "134452.645000", "134454.645000", "134456.645000", "134458.645000", "134500.645000", "134502.645000", "134504.645000", "134506.645000", "134508.645000", "134510.645000", "134512.645000", "134514.645000", "134516.645000", "134518.645000", "134520.645000", "134522.645000", "134524.645000", "134526.645000", "134528.645000", "134530.645000", "134532.645000", "134534.645000", "134536.645000", "134538.645000", "134540.645000", "134542.645000", "134544.645000", "134546.645000", "134548.645000", "134550.645000", "134552.645000", "134554.645000", "134556.645000", "134558.645000", "134600.645000", "134602.645000", "134604.645000", "134606.645000", "134608.645000", "134610.645000", "134612.645000", "134614.645000", "134616.645000", "134618.645000", "134620.645000", "134622.645000", "134624.645000", "134626.645000", "134628.645000", "134630.645000", "134632.645000", "134634.645000", "134636.645000", "134638.645000", "134640.645000", "134642.645000", "134644.645000", "134646.645000", "134648.645000", "134650.645000", "134652.645000", "134654.645000", "134656.645000", "134658.645000", "134700.645000", "134702.645000", "134704.645000", "134706.645000", "134708.645000", "134710.645000", "134712.645000", "134714.645000", "134716.645000", "134718.645000", "134720.645000", "134722.645000", "134724.645000", "134726.645000", "134728.645000", "134730.645000", "134732.645000", "134734.645000", "134736.645000", "134738.645000", "134740.645000", "134742.645000", "134744.645000", "134746.645000", "134748.645000", "134750.645000", "134752.645000", "134754.645000", "134756.645000", "134758.645000", "134800.645000", "134802.645000", "134804.645000", "134806.645000", "134808.645000", "134810.645000", "134812.645000", "134814.645000", "134816.645000", "134818.645000", "134820.645000", "134822.645000", "134824.645000", "134826.645000", "134828.645000", "134830.645000", "134832.645000", "134834.645000", "134836.645000", "134838.645000", "134840.645000", "134842.645000", "134844.645000", "134846.645000", "134848.645000", "134850.645000", "134852.645000", "134854.645000", "134856.645000", "134858.645000", "134900.645000", "134902.645000", "134904.645000", "134906.645000", "134908.645000", "134910.645000", "134912.645000", "134914.645000", "134916.645000", "134918.645000", "134920.645000", "134922.645000", "134924.645000", "134926.645000", "134928.645000", "134930.645000", "134932.645000", "134934.645000", "134936.645000", "134938.645000", "134940.645000", "134942.645000", "134944.645000", "134946.645000", "134948.645000", "134950.645000", "134952.645000", "134954.645000", "134956.645000", "134958.645000", "135000.645000", "135002.645000", "135004.645000", "135006.645000", "135008.645000", "135010.645000", "135012.647500", "135014.647500", "135016.647500", "135018.647500", "135020.647500"],
      "ContentTime": ["134055.666000", "134056.658000", "134056.663000", "134057.659000", "134058.659000", "134058.664000", "134059.658000", "134101.661000", "134103.659000", "134105.658000", "134107.659000", "134109.659000", "134111.660000", "134113.660000", "134115.660000", "134117.660000", "134119.660000", "134121.660000", "134123.659000", "134125.659000", "134127.660000", "134129.658000", "134131.659000", "134133.659000", "134135.659000", "134137.659000", "134139.657000", "134141.659000", "134143.658000", "134145.659000", "134147.658000", "134149.660000", "134151.660000", "134153.659000", "134155.659000", "134157.658000", "134159.658000", "134201.659000", "134203.658000", "134205.660000", "134207.658000", "134209.659000", "134211.660000", "134213.659000", "134215.657000", "134217.659000", "134219.659000", "134221.659000", "134223.659000", "134225.659000", "134227.660000", "134229.660000", "134231.659000", "134233.658000", "134235.659000", "134237.659000", "134239.659000", "134241.659000", "134243.657000", "134245.658000", "134247.660000", "134249.659000", "134251.658000", "134253.659000", "134255.658000", "134257.658000", "134259.658000", "134301.659000", "134303.661000", "134305.659000", "134307.659000", "134309.659000", "134311.659000", "134313.659000", "134315.659000", "134317.660000", "134319.659000", "134321.661000", "134323.661000", "134325.659000", "134327.660000", "134329.657000", "134331.659000", "134333.659000", "134335.659000", "134337.658000", "134339.660000", "134341.659000", "134343.659000", "134345.659000", "134347.659000", "134349.658000", "134351.658000", "134353.660000", "134355.659000", "134357.660000", "134359.659000", "134401.658000", "134403.658000", "134405.660000", "134407.659000", "134409.659000", "134411.659000", "134413.660000", "134415.660000", "134417.658000", "134419.657000", "134421.659000", "134423.659000", "134425.658000", "134427.659000", "134429.658000", "134431.660000", "134433.660000", "134435.659000", "134437.660000", "134439.659000", "134441.660000", "134443.659000", "134445.659000", "134447.659000", "134449.660000", "134451.659000", "134453.659000", "134455.659000", "134457.659000", "134459.659000", "134501.658000", "134503.659000", "134505.659000", "134507.661000", "134509.659000", "134511.668000", "134513.658000", "134515.659000", "134517.659000", "134519.660000", "134521.658000", "134523.659000", "134525.660000", "134527.659000", "134529.658000", "134531.657000", "134533.660000", "134535.659000", "134537.659000", "134539.658000", "134541.660000", "134543.659000", "134545.658000", "134547.658000", "134549.658000", "134551.659000", "134553.659000", "134555.659000", "134557.659000", "134559.660000", "134601.659000", "134603.658000", "134605.659000", "134607.657000", "134609.659000", "134611.659000", "134613.660000", "134615.661000", "134617.660000", "134619.658000", "134621.659000", "134623.659000", "134625.659000", "134627.660000", "134629.658000", "134631.659000", "134633.660000", "134635.659000", "134637.659000", "134639.659000", "134641.658000", "134643.657000", "134645.660000", "134647.659000", "134649.659000", "134651.660000", "134653.660000", "134655.658000", "134657.659000", "134659.659000", "134701.658000", "134703.658000", "134705.659000", "134707.660000", "134709.660000", "134711.659000", "134713.659000", "134715.659000", "134717.660000", "134719.659000", "134721.657000", "134723.658000", "134725.659000", "134727.660000", "134729.659000", "134731.658000", "134733.659000", "134735.658000", "134737.659000", "134739.659000", "134741.659000", "134743.659000", "134745.661000", "134747.659000", "134749.659000", "134751.659000", "134753.660000", "134755.659000", "134757.659000", "134759.658000", "134801.660000", "134803.659000", "134805.659000", "134807.659000", "134809.659000", "134811.660000", "134813.660000", "134815.659000", "134817.658000", "134819.658000", "134821.658000", "134823.658000", "134825.658000", "134827.659000", "134829.658000", "134831.658000", "134833.658000", "134835.660000", "134837.660000", "134839.658000", "134841.658000", "134843.660000", "134845.658000", "134847.659000", "134849.659000", "134851.659000", "134853.660000", "134855.660000", "134857.660000", "134859.659000", "134901.659000", "134903.659000", "134905.658000", "134907.659000", "134909.659000", "134911.659000", "134913.659000", "134915.659000", "134917.659000", "134919.659000", "134921.659000", "134923.659000", "134925.659000", "134927.659000", "134929.660000", "134931.659000", "134933.659000", "134935.658000", "134937.658000", "134939.660000", "134941.660000", "134943.659000", "134945.660000", "134947.661000", "134949.659000", "134951.659000", "134953.659000", "134955.659000", "134957.659000", "134959.659000", "135001.658000", "135003.660000", "135005.660000", "135007.659000", "135009.659000", "135011.659000", "135013.660000", "135015.659000", "135017.659000", "135019.659000", "135021.661000", "135023.536000"],
      "InstanceCreationTime": ["134055.666000", "134056.658000", "134056.663000", "134057.659000", "134058.659000", "134058.664000", "134059.658000", "134101.661000", "134103.659000", "134105.658000", "134107.659000", "134109.659000", "134111.660000", "134113.660000", "134115.660000", "134117.660000", "134119.660000", "134121.660000", "134123.659000", "134125.659000", "134127.660000", "134129.658000", "134131.659000", "134133.659000", "134135.659000", "134137.659000", "134139.657000", "134141.659000", "134143.658000", "134145.659000", "134147.658000", "134149.660000", "134151.660000", "134153.659000", "134155.659000", "134157.658000", "134159.658000", "134201.659000", "134203.658000", "134205.660000", "134207.658000", "134209.659000", "134211.660000", "134213.659000", "134215.657000", "134217.659000", "134219.659000", "134221.659000", "134223.659000", "134225.659000", "134227.660000", "134229.660000", "134231.659000", "134233.658000", "134235.659000", "134237.659000", "134239.659000", "134241.659000", "134243.657000", "134245.658000", "134247.660000", "134249.659000", "134251.658000", "134253.659000", "134255.658000", "134257.658000", "134259.658000", "134301.659000", "134303.661000", "134305.659000", "134307.659000", "134309.659000", "134311.659000", "134313.659000", "134315.659000", "134317.660000", "134319.659000", "134321.661000", "134323.661000", "134325.659000", "134327.660000", "134329.657000", "134331.659000", "134333.659000", "134335.659000", "134337.658000", "134339.660000", "134341.659000", "134343.659000", "134345.659000", "134347.659000", "134349.658000", "134351.658000", "134353.660000", "134355.659000", "134357.660000", "134359.659000", "134401.658000", "134403.658000", "134405.660000", "134407.659000", "134409.659000", "134411.659000", "134413.660000", "134415.660000", "134417.658000", "134419.657000", "134421.659000", "134423.659000", "134425.658000", "134427.659000", "134429.658000", "134431.660000", "134433.660000", "134435.659000", "134437.660000", "134439.659000", "134441.660000", "134443.659000", "134445.659000", "134447.659000", "134449.660000", "134451.659000", "134453.659000", "134455.659000", "134457.659000", "134459.659000", "134501.658000", "134503.659000", "134505.659000", "134507.661000", "134509.659000", "134511.668000", "134513.658000", "134515.659000", "134517.659000", "134519.660000", "134521.658000", "134523.659000", "134525.660000", "134527.659000", "134529.658000", "134531.657000", "134533.660000", "134535.659000", "134537.659000", "134539.658000", "134541.660000", "134543.659000", "134545.658000", "134547.658000", "134549.658000", "134551.659000", "134553.659000", "134555.659000", "134557.659000", "134559.660000", "134601.659000", "134603.658000", "134605.659000", "134607.657000", "134609.659000", "134611.659000", "134613.660000", "134615.661000", "134617.660000", "134619.658000", "134621.659000", "134623.659000", "134625.659000", "134627.660000", "134629.658000", "134631.659000", "134633.660000", "134635.659000", "134637.659000", "134639.659000", "134641.658000", "134643.657000", "134645.660000", "134647.659000", "134649.659000", "134651.660000", "134653.660000", "134655.658000", "134657.659000", "134659.659000", "134701.658000", "134703.658000", "134705.659000", "134707.660000", "134709.660000", "134711.659000", "134713.659000", "134715.659000", "134717.660000", "134719.659000", "134721.657000", "134723.658000", "134725.659000", "134727.660000", "134729.659000", "134731.658000", "134733.659000", "134735.658000", "134737.659000", "134739.659000", "134741.659000", "134743.659000", "134745.661000", "134747.659000", "134749.659000", "134751.659000", "134753.660000", "134755.659000", "134757.659000", "134759.658000", "134801.660000", "134803.659000", "134805.659000", "134807.659000", "134809.659000", "134811.660000", "134813.660000", "134815.659000", "134817.658000", "134819.658000", "134821.658000", "134823.658000", "134825.658000", "134827.659000", "134829.658000", "134831.658000", "134833.658000", "134835.660000", "134837.660000", "134839.658000", "134841.658000", "134843.660000", "134845.658000", "134847.659000", "134849.659000", "134851.659000", "134853.660000", "134855.660000", "134857.660000", "134859.659000", "134901.659000", "134903.659000", "134905.658000", "134907.659000", "134909.659000", "134911.659000", "134913.659000", "134915.659000", "134917.659000", "134919.659000", "134921.659000", "134923.659000", "134925.659000", "134927.659000", "134929.660000", "134931.659000", "134933.659000", "134935.658000", "134937.658000", "134939.660000", "134941.660000", "134943.659000", "134945.660000", "134947.661000", "134949.659000", "134951.659000", "134953.659000", "134955.659000", "134957.659000", "134959.659000", "135001.658000", "135003.660000", "135005.660000", "135007.659000", "135009.659000", "135011.659000", "135013.660000", "135015.659000", "135017.659000", "135019.659000", "135021.661000", "135023.536000"],
      "InstanceNumber": [1, 2, 3, 4, 5, 6, 7, 8, 9, 10, 11, 12, 13, 14, 15, 16, 17, 18, 19, 20, 21, 22, 23, 24, 25, 26, 27, 28, 29, 30, 31, 32, 33, 34, 35, 36, 37, 38, 39, 40, 41, 42, 43, 44, 45, 46, 47, 48, 49, 50, 51, 52, 53, 54, 55, 56, 57, 58, 59, 60, 61, 62, 63, 64, 65, 66, 67, 68, 69, 70, 71, 72, 73, 74, 75, 76, 77, 78, 79, 80, 81, 82, 83, 84, 85, 86, 87, 88, 89, 90, 91, 92, 93, 94, 95, 96, 97, 98, 99, 100, 101, 102, 103, 104, 105, 106, 107, 108, 109, 110, 111, 112, 113, 114, 115, 116, 117, 118, 119, 120, 121, 122, 123, 124, 125, 126, 127, 128, 129, 130, 131, 132, 133, 134, 135, 136, 137, 138, 139, 140, 141, 142, 143, 144, 145, 146, 147, 148, 149, 150, 151, 152, 153, 154, 155, 156, 157, 158, 159, 160, 161, 162, 163, 164, 165, 166, 167, 168, 169, 170, 171, 172, 173, 174, 175, 176, 177, 178, 179, 180, 181, 182, 183, 184, 185, 186, 187, 188, 189, 190, 191, 192, 193, 194, 195, 196, 197, 198, 199, 200, 201, 202, 203, 204, 205, 206, 207, 208, 209, 210, 211, 212, 213, 214, 215, 216, 217, 218, 219, 220, 221, 222, 223, 224, 225, 226, 227, 228, 229, 230, 231, 232, 233, 234, 235, 236, 237, 238, 239, 240, 241, 242, 243, 244, 245, 246, 247, 248, 249, 250, 251, 252, 253, 254, 255, 256, 257, 258, 259, 260, 261, 262, 263, 264, 265, 266, 267, 268, 269, 270, 271, 272, 273, 274, 275, 276, 277, 278, 279, 280, 281, 282, 283, 284, 285, 286, 287, 288, 289],
      "WindowCenter": [16520.0, 16488.0, 16485.0, 16478.0, 16480.0, 16461.0, 16483.0, 16456.0, 16453.0, 16460.0, 16436.0, 16441.0, 16451.0, 16447.0, 16450.0, 16442.0, 16446.0, 16447.0, 16457.0, 16441.0, 16441.0, 16463.0, 16460.0, 16439.0, 16450.0, 16449.0, 16457.0, 16459.0, 16454.0, 16458.0, 16469.0, 16459.0, 16463.0, 16463.0, 16445.0, 16435.0, 16444.0, 16437.0, 16442.0, 16425.0, 16408.0, 16443.0, 16438.0, 16405.0, 16416.0, 16434.0, 16424.0, 16443.0, 16438.0, 16448.0, 16446.0, 16446.0, 16445.0, 16435.0, 16451.0, 16465.0, 16479.0, 16461.0, 16451.0, 16460.0, 16467.0, 16483.0, 16464.0, 16457.0, 16444.0, 16454.0, 16465.0, 16452.0, 16450.0, 16458.0, 16471.0, 16474.0, 16461.0, 16464.0, 16475.0, 16473.0, 16457.0, 16478.0, 16482.0, 16472.0, 16461.0, 16453.0, 16463.0, 16474.0, 16472.0, 16464.0, 16467.0, 16480.0, 16476.0, 16479.0, 16482.0, 16479.0, 16490.0, 16482.0, 16479.0, 16476.0, 16495.0, 16488.0, 16474.0, 16486.0, 16484.0, 16481.0, 16491.0, 16480.0, 16500.0, 16485.0, 16476.0, 16481.0, 16478.0, 16480.0, 16470.0, 16473.0, 16476.0, 16465.0, 16468.0, 16476.0, 16461.0, 16471.0, 16484.0, 16460.0, 16477.0, 16479.0, 16468.0, 16481.0, 16474.0, 16467.0, 16477.0, 16485.0, 16482.0, 16475.0, 16467.0, 16467.0, 16463.0, 16471.0, 16454.0, 16471.0, 16463.0, 16459.0, 16475.0, 16481.0, 16476.0, 16476.0, 16476.0, 16473.0, 16481.0, 16470.0, 16464.0, 16480.0, 16488.0, 16472.0, 16484.0, 16480.0, 16486.0, 16470.0, 16466.0, 16456.0, 16432.0, 16468.0, 16420.0, 16393.0, 16421.0, 16438.0, 16474.0, 16472.0, 16480.0, 16473.0, 16478.0, 16477.0, 16488.0, 16472.0, 16472.0, 16482.0, 16459.0, 16483.0, 16495.0, 16487.0, 16483.0, 16476.0, 16471.0, 16476.0, 16476.0, 16474.0, 16492.0, 16477.0, 16483.0, 16500.0, 16503.0, 16497.0, 16487.0, 16489.0, 16494.0, 16482.0, 16484.0, 16451.0, 16465.0, 16480.0, 16453.0, 16483.0, 16487.0, 16498.0, 16485.0, 16476.0, 16476.0, 16483.0, 16462.0, 16474.0, 16479.0, 16469.0, 16485.0, 16484.0, 16478.0, 16495.0, 16492.0, 16478.0, 16471.0, 16481.0, 16474.0, 16476.0, 16474.0, 16474.0, 16455.0, 16463.0, 16480.0, 16491.0, 16472.0, 16485.0, 16474.0, 16489.0, 16489.0, 16484.0, 16486.0, 16477.0, 16481.0, 16490.0, 16474.0, 16480.0, 16493.0, 16494.0, 16497.0, 16485.0, 16485.0, 16497.0, 16499.0, 16500.0, 16487.0, 16487.0, 16479.0, 16484.0, 16484.0, 16487.0, 16490.0, 16506.0, 16489.0, 16469.0, 16468.0, 16459.0, 16453.0, 16453.0, 16457.0, 16455.0, 16484.0, 16489.0, 16497.0, 16489.0, 16486.0, 16489.0, 16483.0, 16493.0, 16454.0, 16411.0, 16434.0, 16464.0, 16478.0, 16482.0, 16490.0, 16467.0, 16479.0, 16494.0, 16504.0, 16509.0, 16490.0, 16483.0, 16497.0, 16516.0, 16506.0, 16490.0, 16482.0, 16490.0, 16494.0],
      "WindowWidth": [46447.0, 46380.0, 46389.0, 46355.0, 46303.0, 46314.0, 46293.0, 46285.0, 46269.0, 46206.0, 46161.0, 46166.0, 46188.0, 46199.0, 46199.0, 46193.0, 46183.0, 46172.0, 46167.0, 46168.0, 46207.0, 46196.0, 46167.0, 46165.0, 46146.0, 46145.0, 46141.0, 46207.0, 46243.0, 46234.0, 46216.0, 46222.0, 46263.0, 46237.0, 46170.0, 46162.0, 46157.0, 46162.0, 46166.0, 46190.0, 46124.0, 46115.0, 45913.0, 45888.0, 45936.0, 45951.0, 46008.0, 46090.0, 46140.0, 46119.0, 46093.0, 46118.0, 46144.0, 46190.0, 46257.0, 46320.0, 46304.0, 46263.0, 46254.0, 46288.0, 46321.0, 46294.0, 46266.0, 46246.0, 46235.0, 46230.0, 46239.0, 46217.0, 46215.0, 46299.0, 46297.0, 46272.0, 46250.0, 46253.0, 46261.0, 46285.0, 46272.0, 46250.0, 46212.0, 46181.0, 46197.0, 46229.0, 46263.0, 46271.0, 46257.0, 46237.0, 46213.0, 46236.0, 46312.0, 46332.0, 46346.0, 46436.0, 46390.0, 46290.0, 46249.0, 46261.0, 46250.0, 46257.0, 46286.0, 46270.0, 46268.0, 46304.0, 46300.0, 46280.0, 46267.0, 46269.0, 46274.0, 46280.0, 46263.0, 46225.0, 46217.0, 46205.0, 46220.0, 46240.0, 46269.0, 46235.0, 46197.0, 46204.0, 46214.0, 46225.0, 46212.0, 46213.0, 46256.0, 46254.0, 46245.0, 46294.0, 46328.0, 46335.0, 46320.0, 46287.0, 46268.0, 46228.0, 46226.0, 46205.0, 46205.0, 46205.0, 46237.0, 46289.0, 46301.0, 46253.0, 46250.0, 46287.0, 46234.0, 46219.0, 46225.0, 46216.0, 46213.0, 46213.0, 46245.0, 46273.0, 46295.0, 46306.0, 46297.0, 46226.0, 46302.0, 46215.0, 46170.0, 46030.0, 45818.0, 45799.0, 45953.0, 46060.0, 46167.0, 46193.0, 46211.0, 46233.0, 46249.0, 46262.0, 46245.0, 46232.0, 46244.0, 46252.0, 46300.0, 46305.0, 46316.0, 46323.0, 46280.0, 46248.0, 46218.0, 46247.0, 46301.0, 46325.0, 46313.0, 46381.0, 46464.0, 46517.0, 46455.0, 46370.0, 46323.0, 46284.0, 46262.0, 46280.0, 46268.0, 46242.0, 46200.0, 46186.0, 46230.0, 46267.0, 46283.0, 46253.0, 46242.0, 46223.0, 46248.0, 46267.0, 46305.0, 46288.0, 46278.0, 46270.0, 46268.0, 46268.0, 46263.0, 46291.0, 46341.0, 46354.0, 46335.0, 46302.0, 46245.0, 46249.0, 46141.0, 46102.0, 46126.0, 46187.0, 46279.0, 46261.0, 46233.0, 46202.0, 46220.0, 46258.0, 46272.0, 46256.0, 46245.0, 46275.0, 46304.0, 46298.0, 46299.0, 46303.0, 46275.0, 46261.0, 46264.0, 46294.0, 46268.0, 46239.0, 46228.0, 46254.0, 46269.0, 46256.0, 46249.0, 46202.0, 46269.0, 46376.0, 46412.0, 46390.0, 46296.0, 46204.0, 46029.0, 45983.0, 45964.0, 45966.0, 45969.0, 46008.0, 46097.0, 46139.0, 46147.0, 46179.0, 46203.0, 46219.0, 46240.0, 46259.0, 45992.0, 46054.0, 46096.0, 46209.0, 46206.0, 46129.0, 45977.0, 45959.0, 46037.0, 46127.0, 46150.0, 46100.0, 46045.0, 46107.0, 46187.0, 46214.0, 46164.0, 46112.0, 46119.0, 46165.0, 46234.0]
    },
    "slices": {}
  }
}