{
  "AcquisitionMatrixPE": 116,
  "AcquisitionNumber": 1,
  "AcquisitionTime": "13:29:53.542500",
  "BandwidthPerPixelPhaseEncode": 18.539,
  "BaseResolution": 116,
  "BodyPartExamined": "HEAD",
  "ConsistencyInfo": "N4_VD13D_LATEST_20130810",
  "ConversionSoftware": "dcm2niix",
  "ConversionSoftwareVersion": "v1.0.20190410  (JP2:OpenJPEG) (JP-LS:CharLS) GCC5.5.0",
  "DerivedVendorReportedEchoSpacing": 0.000930006,
  "DeviceSerialNumber": "66014",
  "DwellTime": 3e-06,
  "EchoTime": 0.03,
  "EchoTrainLength": 50,
  "EffectiveEchoSpacing": 0.000465003,
  "FlipAngle": 81,
  "ImageComments": "Unaliased_MB3_PE4",
  "ImageOrientationPatientDICOM": [0.999936, 0.00397604, 0.0105985, -0.0034905, 0.998961, -0.0454437],
  "ImageType": [
    "ORIGINAL",
    "PRIMARY",
    "M",
    "MB",
    "ND",
    "MOSAIC"
],
  "ImagingFrequency": 123.261,
  "InPlanePhaseEncodingDirectionDICOM": "COL",
  "InstitutionAddress": "Yiheyuan_Road_5_Beijing_Haidian_CN_100871",
  "InstitutionName": "Peking_Univeristy",
  "InstitutionalDepartmentName": "Department",
  "MRAcquisitionType": "2D",
  "MagneticFieldStrength": 3,
  "Manufacturer": "Siemens",
  "ManufacturersModelName": "Prisma",
  "Modality": "MR",
  "MultibandAccelerationFactor": 3,
  "ParallelReductionFactorInPlane": 2,
  "PartialFourier": 0.875,
  "PatientPosition": "HFS",
  "PercentPhaseFOV": 100,
  "PhaseEncodingDirection": "j-",
  "PhaseEncodingSteps": 101,
  "PhaseResolution": 1,
  "PixelBandwidth": 1435,
  "ProcedureStepDescription": "Research_Projects_64CH",
  "ProtocolName": "mbep2d_bold_MB3_test2",
  "PulseSequenceDetails": "%CustomerSeq%_cmrr_mbep2d_bold",
  "ReceiveCoilActiveElements": "HC1-6",
  "ReceiveCoilName": "HeadNeck_64",
  "ReconMatrixPE": 116,
  "RefLinesPE": 44,
  "RepetitionTime": 2,
  "SAR": 0.0550759,
  "ScanOptions": "PFP_FS",
  "ScanningSequence": "EP",
  "SequenceName": "epfid2d1_116",
  "SequenceVariant": "SK_SS",
  "SeriesDescription": "mbep2d_bold_MB3_test2",
  "SeriesNumber": 7,
  "ShimSetting": [-3451, -2107, -1928, 377, -4, -232, 66, 7],
  "SliceThickness": 1.9,
  "SliceTiming": [0, 0.905, 1.8125, 0.74, 1.6475, 0.575, 1.4825, 0.41, 1.3175, 0.2475, 1.1525, 0.0825, 0.9875, 1.895, 0.8225, 1.73, 0.6575, 1.565, 0.4925, 1.4, 0.3275, 1.235, 0.165, 1.07, 0, 0.905, 1.8125, 0.74, 1.6475, 0.575, 1.4825, 0.41, 1.3175, 0.2475, 1.1525, 0.0825, 0.9875, 1.895, 0.8225, 1.73, 0.6575, 1.565, 0.4925, 1.4, 0.3275, 1.235, 0.165, 1.07, 0, 0.905, 1.8125, 0.74, 1.6475, 0.575, 1.4825, 0.41, 1.3175, 0.2475, 1.1525, 0.0825, 0.9875, 1.895, 0.8225, 1.73, 0.6575, 1.565, 0.4925, 1.4, 0.3275, 1.235, 0.165, 1.07],
  "SoftwareVersions": "syngo_MR_D13D",
  "SpacingBetweenSlices": 1.9,
  "StationName": "AWP66014",
  "TaskName": "retrieval",
  "TotalReadoutTime": 0.0534753,
  "TxRefAmp": 222.44,
  "WipMemBlock": "b59f32de-91e7-4202-b6d5-baf876f2cba3||Sequence: vd13d/master r/0735857; Nov 19 2014 09:21:40 by eja",
  "dcmmeta_affine": [
    [-1.896430253982544, -0.006619911175221205, 0.0204596146941185, 109.2906494140625],
    [-0.0075407736003398895, 1.8945808410644531, -0.08626727759838104, -94.71525573730469],
    [0.02010069042444229, 0.08618639409542084, 1.8979302644729614, -77.83920288085938],
    [0.0, 0.0, 0.0, 1.0]
],
  "dcmmeta_reorient_transform": [
    [0.0, -1.0, 0.0, 115.0],
    [1.0, 0.0, 0.0, 0.0],
    [0.0, 0.0, 1.0, 0.0],
    [0.0, 0.0, 0.0, 1.0]
],
  "dcmmeta_shape": [116, 116, 72, 289],
  "dcmmeta_slice_dim": 2,
  "dcmmeta_version": 0.6,
  "global": {
    "const": {
      "AcquisitionMatrix": [116, 0, 0, 116],
      "AngioFlag": "N",
      "BitsAllocated": 16,
      "BitsStored": 16,
      "BodyPartExamined": "HEAD",
      "Columns": 1044,
      "EchoNumbers": 1,
      "EchoTime": 30.0,
      "EchoTrainLength": 50,
      "FlipAngle": 81.0,
      "HighBit": 15,
      "ImageOrientationPatient": [0.9999359289, 0.00397604428292, 0.01059854550227, -0.0034904985294, 0.99896080170968, -0.045443735185],
      "ImagePositionPatient": [-985.40134234647, -1005.7459692172, -37.264004326866],
      "ImageType": [
        "ORIGINAL",
        "PRIMARY",
        "M",
        "MB",
        "ND",
        "MOSAIC"
],
      "ImagedNucleus": "1H",
      "ImagingFrequency": 123.26056,
      "InPlanePhaseEncodingDirection": "COL",
      "LargestImagePixelValue": 65535,
      "MRAcquisitionType": "2D",
      "MagneticFieldStrength": 3.0,
      "Manufacturer": "SIEMENS",
      "ManufacturerModelName": "Prisma",
      "Modality": "MR",
      "NumberOfAverages": 1.0,
      "NumberOfPhaseEncodingSteps": 101,
      "PercentPhaseFieldOfView": 100.0,
      "PercentSampling": 100.0,
      "PerformedProcedureStepStartTime": "130757.196000",
      "PhotometricInterpretation": "MONOCHROME2",
      "PixelBandwidth": 1435.0,
      "PixelRepresentation": 0,
      "PixelSpacing": [1.8965517282486, 1.8965517282486],
      "ProtocolName": "mbep2d_bold_MB3_test2",
      "RepetitionTime": 2000.0,
      "Rows": 1044,
      "SAR": 0.05507589543499,
      "SamplesPerPixel": 1,
      "ScanOptions": [
        "PFP",
        "FS"
],
      "ScanningSequence": "EP",
      "SequenceName": "epfid2d1_116",
      "SequenceVariant": [
        "SK",
        "SS"
],
      "SeriesDescription": "mbep2d_bold_MB3_test2",
      "SeriesNumber": 7,
      "SeriesTime": "133005.111000",
      "SliceLocation": -72.277113799743,
      "SliceThickness": 1.8999999761581,
      "SmallestImagePixelValue": 0,
      "SoftwareVersions": "syngo MR D13D",
      "SpacingBetweenSlices": 1.9000000228497,
      "SpecificCharacterSet": "ISO_IR 100",
      "StudyID": "1",
      "StudyTime": "130757.111000",
      "TimeOfLastCalibration": ["123723.000000", "123723.000000"],
      "TransmitCoilName": "Body",
      "VariableFlipAngleFlag": "N",
      "WindowCenterWidthExplanation": "Algo1",
      "dBdt": 0.0},
    "slices": {}
  },
  "time": {
    "samples": {
      "AcquisitionNumber": [1, 2, 3, 4, 5, 6, 7, 8, 9, 10, 11, 12, 13, 14, 15, 16, 17, 18, 19, 20, 21, 22, 23, 24, 25, 26, 27, 28, 29, 30, 31, 32, 33, 34, 35, 36, 37, 38, 39, 40, 41, 42, 43, 44, 45, 46, 47, 48, 49, 50, 51, 52, 53, 54, 55, 56, 57, 58, 59, 60, 61, 62, 63, 64, 65, 66, 67, 68, 69, 70, 71, 72, 73, 74, 75, 76, 77, 78, 79, 80, 81, 82, 83, 84, 85, 86, 87, 88, 89, 90, 91, 92, 93, 94, 95, 96, 97, 98, 99, 100, 101, 102, 103, 104, 105, 106, 107, 108, 109, 110, 111, 112, 113, 114, 115, 116, 117, 118, 119, 120, 121, 122, 123, 124, 125, 126, 127, 128, 129, 130, 131, 132, 133, 134, 135, 136, 137, 138, 139, 140, 141, 142, 143, 144, 145, 146, 147, 148, 149, 150, 151, 152, 153, 154, 155, 156, 157, 158, 159, 160, 161, 162, 163, 164, 165, 166, 167, 168, 169, 170, 171, 172, 173, 174, 175, 176, 177, 178, 179, 180, 181, 182, 183, 184, 185, 186, 187, 188, 189, 190, 191, 192, 193, 194, 195, 196, 197, 198, 199, 200, 201, 202, 203, 204, 205, 206, 207, 208, 209, 210, 211, 212, 213, 214, 215, 216, 217, 218, 219, 220, 221, 222, 223, 224, 225, 226, 227, 228, 229, 230, 231, 232, 233, 234, 235, 236, 237, 238, 239, 240, 241, 242, 243, 244, 245, 246, 247, 248, 249, 250, 251, 252, 253, 254, 255, 256, 257, 258, 259, 260, 261, 262, 263, 264, 265, 266, 267, 268, 269, 270, 271, 272, 273, 274, 275, 276, 277, 278, 279, 280, 281, 282, 283, 284, 285, 286, 287, 288, 289],
      "AcquisitionTime": ["132953.542500", "132955.542500", "132957.542500", "132959.542500", "133001.542500", "133003.542500", "133005.542500", "133007.542500", "133009.542500", "133011.542500", "133013.542500", "133015.542500", "133017.542500", "133019.542500", "133021.542500", "133023.542500", "133025.542500", "133027.542500", "133029.542500", "133031.542500", "133033.542500", "133035.542500", "133037.542500", "133039.542500", "133041.542500", "133043.542500", "133045.542500", "133047.542500", "133049.542500", "133051.542500", "133053.542500", "133055.542500", "133057.542500", "133059.542500", "133101.542500", "133103.542500", "133105.542500", "133107.542500", "133109.542500", "133111.542500", "133113.542500", "133115.542500", "133117.542500", "133119.542500", "133121.542500", "133123.542500", "133125.542500", "133127.542500", "133129.542500", "133131.542500", "133133.542500", "133135.542500", "133137.542500", "133139.542500", "133141.542500", "133143.542500", "133145.542500", "133147.542500", "133149.542500", "133151.542500", "133153.542500", "133155.542500", "133157.542500", "133159.542500", "133201.542500", "133203.542500", "133205.542500", "133207.542500", "133209.542500", "133211.542500", "133213.542500", "133215.542500", "133217.542500", "133219.542500", "133221.542500", "133223.542500", "133225.542500", "133227.542500", "133229.542500", "133231.542500", "133233.542500", "133235.542500", "133237.542500", "133239.542500", "133241.542500", "133243.542500", "133245.542500", "133247.542500", "133249.542500", "133251.542500", "133253.542500", "133255.542500", "133257.542500", "133259.542500", "133301.542500", "133303.542500", "133305.542500", "133307.542500", "133309.542500", "133311.542500", "133313.542500", "133315.542500", "133317.542500", "133319.542500", "133321.542500", "133323.542500", "133325.542500", "133327.542500", "133329.542500", "133331.542500", "133333.542500", "133335.542500", "133337.542500", "133339.542500", "133341.542500", "133343.542500", "133345.542500", "133347.542500", "133349.542500", "133351.542500", "133353.542500", "133355.542500", "133357.542500", "133359.542500", "133401.542500", "133403.542500", "133405.542500", "133407.542500", "133409.542500", "133411.542500", "133413.542500", "133415.542500", "133417.542500", "133419.542500", "133421.542500", "133423.542500", "133425.542500", "133427.542500", "133429.542500", "133431.542500", "133433.542500", "133435.542500", "133437.542500", "133439.542500", "133441.542500", "133443.542500", "133445.542500", "133447.542500", "133449.542500", "133451.542500", "133453.542500", "133455.542500", "133457.542500", "133459.542500", "133501.542500", "133503.542500", "133505.542500", "133507.542500", "133509.542500", "133511.542500", "133513.542500", "133515.542500", "133517.542500", "133519.542500", "133521.542500", "133523.542500", "133525.542500", "133527.542500", "133529.542500", "133531.542500", "133533.542500", "133535.542500", "133537.542500", "133539.542500", "133541.542500", "133543.542500", "133545.542500", "133547.542500", "133549.542500", "133551.542500", "133553.542500", "133555.542500", "133557.542500", "133559.542500", "133601.542500", "133603.542500", "133605.542500", "133607.542500", "133609.542500", "133611.542500", "133613.542500", "133615.542500", "133617.542500", "133619.542500", "133621.542500", "133623.542500", "133625.542500", "133627.542500", "133629.542500", "133631.542500", "133633.542500", "133635.542500", "133637.542500", "133639.542500", "133641.542500", "133643.542500", "133645.542500", "133647.542500", "133649.542500", "133651.542500", "133653.542500", "133655.542500", "133657.542500", "133659.542500", "133701.542500", "133703.542500", "133705.542500", "133707.542500", "133709.542500", "133711.542500", "133713.542500", "133715.542500", "133717.542500", "133719.542500", "133721.542500", "133723.542500", "133725.542500", "133727.542500", "133729.542500", "133731.542500", "133733.542500", "133735.542500", "133737.542500", "133739.542500", "133741.542500", "133743.542500", "133745.542500", "133747.542500", "133749.542500", "133751.542500", "133753.542500", "133755.542500", "133757.542500", "133759.542500", "133801.542500", "133803.542500", "133805.542500", "133807.545000", "133809.545000", "133811.545000", "133813.545000", "133815.545000", "133817.545000", "133819.545000", "133821.545000", "133823.545000", "133825.545000", "133827.545000", "133829.545000", "133831.545000", "133833.545000", "133835.545000", "133837.545000", "133839.545000", "133841.545000", "133843.545000", "133845.545000", "133847.545000", "133849.545000", "133851.545000", "133853.545000", "133855.545000", "133857.545000", "133859.545000", "133901.545000", "133903.545000", "133905.545000", "133907.545000", "133909.545000", "133911.545000", "133913.545000", "133915.545000", "133917.545000", "133919.545000", "133921.545000", "133923.545000", "133925.545000", "133927.545000", "133929.545000"],
      "ContentTime": ["133005.118000", "133006.110000", "133006.124000", "133007.610000", "133007.615000", "133009.110000", "133009.121000", "133010.609000", "133012.110000", "133014.109000", "133016.110000", "133018.110000", "133020.110000", "133022.110000", "133024.110000", "133026.110000", "133028.109000", "133030.109000", "133032.110000", "133034.111000", "133036.110000", "133038.110000", "133040.110000", "133042.111000", "133044.110000", "133046.110000", "133048.109000", "133050.109000", "133052.110000", "133054.110000", "133056.110000", "133058.109000", "133100.111000", "133102.109000", "133104.109000", "133106.109000", "133108.111000", "133110.109000", "133112.110000", "133114.111000", "133116.109000", "133118.109000", "133120.110000", "133122.110000", "133124.110000", "133126.109000", "133128.110000", "133130.110000", "133132.111000", "133134.109000", "133136.110000", "133138.109000", "133140.109000", "133142.109000", "133144.110000", "133146.110000", "133148.110000", "133150.109000", "133152.109000", "133154.110000", "133156.109000", "133158.108000", "133200.109000", "133202.111000", "133204.112000", "133206.110000", "133208.109000", "133210.109000", "133212.110000", "133214.110000", "133216.109000", "133218.109000", "133220.109000", "133222.109000", "133224.109000", "133226.110000", "133228.110000", "133230.111000", "133232.110000", "133234.110000", "133236.110000", "133238.110000", "133240.110000", "133242.109000", "133244.112000", "133246.110000", "133248.111000", "133250.109000", "133252.109000", "133254.111000", "133256.111000", "133258.111000", "133300.109000", "133302.110000", "133304.111000", "133306.109000", "133308.109000", "133310.109000", "133312.111000", "133314.110000", "133316.111000", "133318.111000", "133320.111000", "133322.111000", "133324.111000", "133326.110000", "133328.111000", "133330.111000", "133332.110000", "133334.109000", "133336.109000", "133338.110000", "133340.111000", "133342.110000", "133344.111000", "133346.110000", "133348.109000", "133350.109000", "133352.109000", "133354.109000", "133356.111000", "133358.110000", "133400.110000", "133402.112000", "133404.109000", "133406.110000", "133408.111000", "133410.109000", "133412.111000", "133414.110000", "133416.109000", "133418.109000", "133420.643000", "133422.110000", "133424.110000", "133426.110000", "133428.109000", "133430.109000", "133432.111000", "133434.111000", "133436.108000", "133438.111000", "133440.110000", "133442.111000", "133444.110000", "133446.110000", "133448.110000", "133450.109000", "133452.110000", "133454.110000", "133456.110000", "133458.109000", "133500.109000", "133502.110000", "133504.110000", "133506.110000", "133508.110000", "133510.110000", "133512.111000", "133514.110000", "133516.110000", "133518.111000", "133520.111000", "133522.110000", "133524.110000", "133526.110000", "133528.108000", "133530.109000", "133532.110000", "133534.110000", "133536.155000", "133538.110000", "133540.110000", "133542.110000", "133544.111000", "133546.110000", "133548.110000", "133550.110000", "133552.110000", "133554.111000", "133556.110000", "133558.109000", "133600.110000", "133602.110000", "133604.110000", "133606.110000", "133608.110000", "133610.111000", "133612.111000", "133614.111000", "133616.111000", "133618.111000", "133620.109000", "133622.111000", "133624.111000", "133626.111000", "133628.111000", "133630.111000", "133632.112000", "133634.110000", "133636.110000", "133638.110000", "133640.111000", "133642.109000", "133644.111000", "133646.112000", "133648.111000", "133650.111000", "133652.111000", "133654.112000", "133656.110000", "133658.110000", "133700.110000", "133702.111000", "133704.111000", "133706.111000", "133708.111000", "133710.111000", "133712.112000", "133714.111000", "133716.111000", "133718.110000", "133720.111000", "133722.111000", "133724.111000", "133726.111000", "133728.110000", "133730.110000", "133732.111000", "133734.111000", "133736.111000", "133738.111000", "133740.111000", "133742.111000", "133744.111000", "133746.111000", "133748.110000", "133750.110000", "133752.111000", "133754.111000", "133756.111000", "133758.111000", "133800.111000", "133802.110000", "133804.110000", "133806.111000", "133808.111000", "133810.111000", "133812.111000", "133814.111000", "133816.111000", "133818.111000", "133820.111000", "133822.110000", "133824.111000", "133826.112000", "133828.111000", "133830.111000", "133832.110000", "133834.110000", "133836.111000", "133838.110000", "133840.109000", "133842.110000", "133844.110000", "133846.111000", "133848.111000", "133850.111000", "133852.111000", "133854.111000", "133856.111000", "133858.110000", "133900.110000", "133902.111000", "133904.111000", "133906.111000", "133908.111000", "133910.111000", "133912.111000", "133914.110000", "133916.111000", "133918.110000", "133920.111000", "133922.111000", "133924.111000", "133926.112000", "133928.121000", "133930.111000", "133931.995000"],
      "InstanceCreationTime": ["133005.118000", "133006.110000", "133006.124000", "133007.610000", "133007.615000", "133009.110000", "133009.121000", "133010.609000", "133012.110000", "133014.109000", "133016.110000", "133018.110000", "133020.110000", "133022.110000", "133024.110000", "133026.110000", "133028.109000", "133030.109000", "133032.110000", "133034.111000", "133036.110000", "133038.110000", "133040.110000", "133042.111000", "133044.110000", "133046.110000", "133048.109000", "133050.109000", "133052.110000", "133054.110000", "133056.110000", "133058.109000", "133100.111000", "133102.109000", "133104.109000", "133106.109000", "133108.111000", "133110.109000", "133112.110000", "133114.111000", "133116.109000", "133118.109000", "133120.110000", "133122.110000", "133124.110000", "133126.109000", "133128.110000", "133130.110000", "133132.111000", "133134.109000", "133136.110000", "133138.109000", "133140.109000", "133142.109000", "133144.110000", "133146.110000", "133148.110000", "133150.109000", "133152.109000", "133154.110000", "133156.109000", "133158.108000", "133200.109000", "133202.111000", "133204.112000", "133206.110000", "133208.109000", "133210.109000", "133212.110000", "133214.110000", "133216.109000", "133218.109000", "133220.109000", "133222.109000", "133224.109000", "133226.110000", "133228.110000", "133230.111000", "133232.110000", "133234.110000", "133236.110000", "133238.110000", "133240.110000", "133242.109000", "133244.112000", "133246.110000", "133248.111000", "133250.109000", "133252.109000", "133254.111000", "133256.111000", "133258.111000", "133300.109000", "133302.110000", "133304.111000", "133306.109000", "133308.109000", "133310.109000", "133312.111000", "133314.110000", "133316.111000", "133318.111000", "133320.111000", "133322.111000", "133324.111000", "133326.110000", "133328.111000", "133330.111000", "133332.110000", "133334.109000", "133336.109000", "133338.110000", "133340.111000", "133342.110000", "133344.111000", "133346.110000", "133348.109000", "133350.109000", "133352.109000", "133354.109000", "133356.111000", "133358.110000", "133400.110000", "133402.112000", "133404.109000", "133406.110000", "133408.111000", "133410.109000", "133412.111000", "133414.110000", "133416.109000", "133418.109000", "133420.643000", "133422.110000", "133424.110000", "133426.110000", "133428.109000", "133430.109000", "133432.111000", "133434.111000", "133436.108000", "133438.111000", "133440.110000", "133442.111000", "133444.110000", "133446.110000", "133448.110000", "133450.109000", "133452.110000", "133454.110000", "133456.110000", "133458.109000", "133500.109000", "133502.110000", "133504.110000", "133506.110000", "133508.110000", "133510.110000", "133512.111000", "133514.110000", "133516.110000", "133518.111000", "133520.111000", "133522.110000", "133524.110000", "133526.110000", "133528.108000", "133530.109000", "133532.110000", "133534.110000", "133536.155000", "133538.110000", "133540.110000", "133542.110000", "133544.111000", "133546.110000", "133548.110000", "133550.110000", "133552.110000", "133554.111000", "133556.110000", "133558.109000", "133600.110000", "133602.110000", "133604.110000", "133606.110000", "133608.110000", "133610.111000", "133612.111000", "133614.111000", "133616.111000", "133618.111000", "133620.109000", "133622.111000", "133624.111000", "133626.111000", "133628.111000", "133630.111000", "133632.112000", "133634.110000", "133636.110000", "133638.110000", "133640.111000", "133642.109000", "133644.111000", "133646.112000", "133648.111000", "133650.111000", "133652.111000", "133654.112000", "133656.110000", "133658.110000", "133700.110000", "133702.111000", "133704.111000", "133706.111000", "133708.111000", "133710.111000", "133712.112000", "133714.111000", "133716.111000", "133718.110000", "133720.111000", "133722.111000", "133724.111000", "133726.111000", "133728.110000", "133730.110000", "133732.111000", "133734.111000", "133736.111000", "133738.111000", "133740.111000", "133742.111000", "133744.111000", "133746.111000", "133748.110000", "133750.110000", "133752.111000", "133754.111000", "133756.111000", "133758.111000", "133800.111000", "133802.110000", "133804.110000", "133806.111000", "133808.111000", "133810.111000", "133812.111000", "133814.111000", "133816.111000", "133818.111000", "133820.111000", "133822.110000", "133824.111000", "133826.112000", "133828.111000", "133830.111000", "133832.110000", "133834.110000", "133836.111000", "133838.110000", "133840.109000", "133842.110000", "133844.110000", "133846.111000", "133848.111000", "133850.111000", "133852.111000", "133854.111000", "133856.111000", "133858.110000", "133900.110000", "133902.111000", "133904.111000", "133906.111000", "133908.111000", "133910.111000", "133912.111000", "133914.110000", "133916.111000", "133918.110000", "133920.111000", "133922.111000", "133924.111000", "133926.112000", "133928.121000", "133930.111000", "133931.995000"],
      "InstanceNumber": [1, 2, 3, 4, 5, 6, 7, 8, 9, 10, 11, 12, 13, 14, 15, 16, 17, 18, 19, 20, 21, 22, 23, 24, 25, 26, 27, 28, 29, 30, 31, 32, 33, 34, 35, 36, 37, 38, 39, 40, 41, 42, 43, 44, 45, 46, 47, 48, 49, 50, 51, 52, 53, 54, 55, 56, 57, 58, 59, 60, 61, 62, 63, 64, 65, 66, 67, 68, 69, 70, 71, 72, 73, 74, 75, 76, 77, 78, 79, 80, 81, 82, 83, 84, 85, 86, 87, 88, 89, 90, 91, 92, 93, 94, 95, 96, 97, 98, 99, 100, 101, 102, 103, 104, 105, 106, 107, 108, 109, 110, 111, 112, 113, 114, 115, 116, 117, 118, 119, 120, 121, 122, 123, 124, 125, 126, 127, 128, 129, 130, 131, 132, 133, 134, 135, 136, 137, 138, 139, 140, 141, 142, 143, 144, 145, 146, 147, 148, 149, 150, 151, 152, 153, 154, 155, 156, 157, 158, 159, 160, 161, 162, 163, 164, 165, 166, 167, 168, 169, 170, 171, 172, 173, 174, 175, 176, 177, 178, 179, 180, 181, 182, 183, 184, 185, 186, 187, 188, 189, 190, 191, 192, 193, 194, 195, 196, 197, 198, 199, 200, 201, 202, 203, 204, 205, 206, 207, 208, 209, 210, 211, 212, 213, 214, 215, 216, 217, 218, 219, 220, 221, 222, 223, 224, 225, 226, 227, 228, 229, 230, 231, 232, 233, 234, 235, 236, 237, 238, 239, 240, 241, 242, 243, 244, 245, 246, 247, 248, 249, 250, 251, 252, 253, 254, 255, 256, 257, 258, 259, 260, 261, 262, 263, 264, 265, 266, 267, 268, 269, 270, 271, 272, 273, 274, 275, 276, 277, 278, 279, 280, 281, 282, 283, 284, 285, 286, 287, 288, 289],
      "WindowCenter": [16508.0, 16455.0, 16448.0, 16456.0, 16451.0, 16438.0, 16440.0, 16449.0, 16431.0, 16439.0, 16429.0, 16423.0, 16428.0, 16429.0, 16430.0, 16434.0, 16430.0, 16417.0, 16439.0, 16436.0, 16446.0, 16430.0, 16437.0, 16415.0, 16409.0, 16432.0, 16419.0, 16427.0, 16436.0, 16430.0, 16422.0, 16426.0, 16420.0, 16427.0, 16425.0, 16435.0, 16437.0, 16423.0, 16428.0, 16434.0, 16451.0, 16432.0, 16427.0, 16437.0, 16418.0, 16415.0, 16430.0, 16439.0, 16433.0, 16438.0, 16445.0, 16438.0, 16430.0, 16440.0, 16451.0, 16446.0, 16445.0, 16445.0, 16420.0, 16433.0, 16438.0, 16432.0, 16430.0, 16432.0, 16450.0, 16440.0, 16434.0, 16435.0, 16440.0, 16433.0, 16448.0, 16450.0, 16442.0, 16449.0, 16442.0, 16426.0, 16444.0, 16436.0, 16438.0, 16450.0, 16432.0, 16426.0, 16440.0, 16455.0, 16451.0, 16465.0, 16450.0, 16440.0, 16423.0, 16423.0, 16431.0, 16434.0, 16415.0, 16407.0, 16408.0, 16427.0, 16430.0, 16433.0, 16446.0, 16435.0, 16452.0, 16447.0, 16447.0, 16435.0, 16448.0, 16438.0, 16448.0, 16450.0, 16446.0, 16460.0, 16459.0, 16463.0, 16454.0, 16458.0, 16473.0, 16461.0, 16460.0, 16456.0, 16437.0, 16443.0, 16453.0, 16459.0, 16461.0, 16457.0, 16474.0, 16465.0, 16434.0, 16467.0, 16462.0, 16458.0, 16457.0, 16469.0, 16462.0, 16462.0, 16453.0, 16451.0, 16457.0, 16453.0, 16457.0, 16464.0, 16455.0, 16449.0, 16448.0, 16435.0, 16444.0, 16451.0, 16454.0, 16448.0, 16454.0, 16447.0, 16464.0, 16455.0, 16465.0, 16453.0, 16456.0, 16454.0, 16468.0, 16461.0, 16461.0, 16474.0, 16488.0, 16475.0, 16464.0, 16474.0, 16468.0, 16468.0, 16470.0, 16467.0, 16460.0, 16466.0, 16451.0, 16475.0, 16477.0, 16477.0, 16460.0, 16471.0, 16464.0, 16473.0, 16458.0, 16468.0, 16466.0, 16473.0, 16467.0, 16472.0, 16469.0, 16464.0, 16453.0, 16461.0, 16488.0, 16490.0, 16479.0, 16496.0, 16482.0, 16477.0, 16473.0, 16479.0, 16464.0, 16485.0, 16483.0, 16486.0, 16489.0, 16487.0, 16473.0, 16457.0, 16486.0, 16465.0, 16477.0, 16466.0, 16470.0, 16436.0, 16450.0, 16449.0, 16451.0, 16443.0, 16448.0, 16464.0, 16476.0, 16479.0, 16474.0, 16468.0, 16476.0, 16467.0, 16487.0, 16489.0, 16482.0, 16472.0, 16472.0, 16479.0, 16469.0, 16479.0, 16491.0, 16486.0, 16463.0, 16467.0, 16481.0, 16472.0, 16474.0, 16466.0, 16478.0, 16463.0, 16470.0, 16475.0, 16475.0, 16463.0, 16462.0, 16468.0, 16460.0, 16464.0, 16475.0, 16479.0, 16482.0, 16469.0, 16482.0, 16480.0, 16474.0, 16466.0, 16458.0, 16470.0, 16467.0, 16466.0, 16460.0, 16465.0, 16465.0, 16472.0, 16458.0, 16458.0, 16475.0, 16468.0, 16475.0, 16476.0, 16483.0, 16472.0, 16493.0, 16480.0, 16480.0, 16485.0, 16467.0, 16465.0, 16462.0, 16489.0, 16492.0, 16499.0, 16506.0, 16486.0, 16472.0, 16460.0, 16451.0, 16434.0, 16455.0],
      "WindowWidth": [46314.0, 46216.0, 46234.0, 46253.0, 46261.0, 46251.0, 46227.0, 46194.0, 46181.0, 46134.0, 46139.0, 46161.0, 46152.0, 46153.0, 46167.0, 46157.0, 46165.0, 46182.0, 46175.0, 46173.0, 46180.0, 46179.0, 46119.0, 46103.0, 46111.0, 46104.0, 46133.0, 46191.0, 46224.0, 46195.0, 46148.0, 46111.0, 46134.0, 46140.0, 46150.0, 46146.0, 46160.0, 46149.0, 46166.0, 46197.0, 46222.0, 46207.0, 46178.0, 46159.0, 46145.0, 46131.0, 46140.0, 46148.0, 46198.0, 46228.0, 46195.0, 46176.0, 46260.0, 46309.0, 46305.0, 46248.0, 46206.0, 46140.0, 46146.0, 46157.0, 46150.0, 46118.0, 46115.0, 46181.0, 46196.0, 46136.0, 46107.0, 46108.0, 46151.0, 46196.0, 46207.0, 46183.0, 46164.0, 46142.0, 46111.0, 46138.0, 46178.0, 46159.0, 46146.0, 46117.0, 46103.0, 46112.0, 46162.0, 46214.0, 46252.0, 46224.0, 46172.0, 46201.0, 46254.0, 46253.0, 46195.0, 46079.0, 45945.0, 45896.0, 45964.0, 46034.0, 46076.0, 46053.0, 46102.0, 46198.0, 46223.0, 46194.0, 46169.0, 46132.0, 46168.0, 46201.0, 46208.0, 46196.0, 46193.0, 46217.0, 46231.0, 46221.0, 46226.0, 46230.0, 46241.0, 46232.0, 46192.0, 46160.0, 46107.0, 46126.0, 46148.0, 46126.0, 46167.0, 46256.0, 46268.0, 46220.0, 46169.0, 46143.0, 46166.0, 46216.0, 46214.0, 46198.0, 46181.0, 46167.0, 46161.0, 46185.0, 46202.0, 46225.0, 46200.0, 46193.0, 46148.0, 46168.0, 46221.0, 46236.0, 46188.0, 46207.0, 46132.0, 46114.0, 46119.0, 46166.0, 46194.0, 46186.0, 46167.0, 46184.0, 46199.0, 46225.0, 46237.0, 46218.0, 46192.0, 46228.0, 46253.0, 46256.0, 46235.0, 46190.0, 46186.0, 46210.0, 46265.0, 46250.0, 46218.0, 46237.0, 46279.0, 46296.0, 46256.0, 46230.0, 46218.0, 46213.0, 46235.0, 46267.0, 46228.0, 46170.0, 46195.0, 46228.0, 46222.0, 46186.0, 46158.0, 46142.0, 46174.0, 46232.0, 46267.0, 46241.0, 46246.0, 46259.0, 46236.0, 46165.0, 46148.0, 46166.0, 46206.0, 46277.0, 46315.0, 46291.0, 46241.0, 46198.0, 46200.0, 46145.0, 46197.0, 46233.0, 46243.0, 46184.0, 46064.0, 46010.0, 45997.0, 45970.0, 45972.0, 45981.0, 46050.0, 46154.0, 46217.0, 46194.0, 46176.0, 46146.0, 46164.0, 46250.0, 46280.0, 46256.0, 46249.0, 46228.0, 46201.0, 46207.0, 46239.0, 46234.0, 46243.0, 46249.0, 46219.0, 46210.0, 46221.0, 46227.0, 46204.0, 46195.0, 46179.0, 46208.0, 46200.0, 46202.0, 46190.0, 46206.0, 46205.0, 46198.0, 46206.0, 46181.0, 46152.0, 46168.0, 46248.0, 46265.0, 46235.0, 46194.0, 46202.0, 46184.0, 46164.0, 46161.0, 46187.0, 46171.0, 46166.0, 46183.0, 46196.0, 46187.0, 46176.0, 46164.0, 46177.0, 46185.0, 46204.0, 46232.0, 46198.0, 46202.0, 46245.0, 46260.0, 46219.0, 46172.0, 46104.0, 46050.0, 46050.0, 46203.0, 46270.0, 46222.0, 46147.0, 46108.0, 46110.0, 46127.0, 46092.0, 46114.0, 46082.0]
    },
    "slices": {}
  }
}