{
  "AcquisitionMatrixPE": 116,
  "AcquisitionNumber": 1,
  "AcquisitionTime": "13:19:2.165000",
  "BandwidthPerPixelPhaseEncode": 18.539,
  "BaseResolution": 116,
  "BodyPartExamined": "HEAD",
  "ConsistencyInfo": "N4_VD13D_LATEST_20130810",
  "ConversionSoftware": "dcm2niix",
  "ConversionSoftwareVersion": "v1.0.20190410  (JP2:OpenJPEG) (JP-LS:CharLS) GCC5.5.0",
  "DerivedVendorReportedEchoSpacing": 0.000930006,
  "DeviceSerialNumber": "66014",
  "DwellTime": 3e-06,
  "EchoTime": 0.03,
  "EchoTrainLength": 50,
  "EffectiveEchoSpacing": 0.000465003,
  "FlipAngle": 81,
  "ImageComments": "Unaliased_MB3_PE4",
  "ImageOrientationPatientDICOM": [0.999936, 0.00397604, 0.0105985, -0.0034905, 0.998961, -0.0454437],
  "ImageType": [
    "ORIGINAL",
    "PRIMARY",
    "M",
    "MB",
    "ND",
    "MOSAIC"
],
  "ImagingFrequency": 123.261,
  "InPlanePhaseEncodingDirectionDICOM": "COL",
  "InstitutionAddress": "Yiheyuan_Road_5_Beijing_Haidian_CN_100871",
  "InstitutionName": "Peking_Univeristy",
  "InstitutionalDepartmentName": "Department",
  "MRAcquisitionType": "2D",
  "MagneticFieldStrength": 3,
  "Manufacturer": "Siemens",
  "ManufacturersModelName": "Prisma",
  "Modality": "MR",
  "MultibandAccelerationFactor": 3,
  "ParallelReductionFactorInPlane": 2,
  "PartialFourier": 0.875,
  "PatientPosition": "HFS",
  "PercentPhaseFOV": 100,
  "PhaseEncodingDirection": "j-",
  "PhaseEncodingSteps": 101,
  "PhaseResolution": 1,
  "PixelBandwidth": 1435,
  "ProcedureStepDescription": "Research_Projects_64CH",
  "ProtocolName": "mbep2d_bold_MB3_test1",
  "PulseSequenceDetails": "%CustomerSeq%_cmrr_mbep2d_bold",
  "ReceiveCoilActiveElements": "HC1-6",
  "ReceiveCoilName": "HeadNeck_64",
  "ReconMatrixPE": 116,
  "RefLinesPE": 44,
  "RepetitionTime": 2,
  "SAR": 0.0550759,
  "ScanOptions": "PFP_FS",
  "ScanningSequence": "EP",
  "SequenceName": "epfid2d1_116",
  "SequenceVariant": "SK_SS",
  "SeriesDescription": "mbep2d_bold_MB3_test1",
  "SeriesNumber": 6,
  "ShimSetting": [-3451, -2107, -1928, 377, -4, -232, 66, 7],
  "SliceThickness": 1.9,
  "SliceTiming": [0, 0.9075, 1.815, 0.7425, 1.65, 0.5775, 1.485, 0.4125, 1.32, 0.2475, 1.155, 0.0825, 0.99, 1.8975, 0.825, 1.7325, 0.66, 1.5675, 0.495, 1.4025, 0.33, 1.2375, 0.165, 1.0725, 0, 0.9075, 1.815, 0.7425, 1.65, 0.5775, 1.485, 0.4125, 1.32, 0.2475, 1.155, 0.0825, 0.99, 1.8975, 0.825, 1.7325, 0.66, 1.5675, 0.495, 1.4025, 0.33, 1.2375, 0.165, 1.0725, 0, 0.9075, 1.815, 0.7425, 1.65, 0.5775, 1.485, 0.4125, 1.32, 0.2475, 1.155, 0.0825, 0.99, 1.8975, 0.825, 1.7325, 0.66, 1.5675, 0.495, 1.4025, 0.33, 1.2375, 0.165, 1.0725],
  "SoftwareVersions": "syngo_MR_D13D",
  "SpacingBetweenSlices": 1.9,
  "StationName": "AWP66014",
  "TaskName": "retrieval",
  "TotalReadoutTime": 0.0534753,
  "TxRefAmp": 222.44,
  "WipMemBlock": "f0647e13-a67c-4daa-8b49-7caa38d16227||Sequence: vd13d/master r/0735857; Nov 19 2014 09:21:40 by eja",
  "dcmmeta_affine": [
    [-1.896430253982544, -0.006619911175221205, 0.0204596146941185, 109.2906494140625],
    [-0.0075407736003398895, 1.8945808410644531, -0.08626727759838104, -94.71525573730469],
    [0.02010069042444229, 0.08618639409542084, 1.8979302644729614, -77.83920288085938],
    [0.0, 0.0, 0.0, 1.0]
],
  "dcmmeta_reorient_transform": [
    [0.0, -1.0, 0.0, 115.0],
    [1.0, 0.0, 0.0, 0.0],
    [0.0, 0.0, 1.0, 0.0],
    [0.0, 0.0, 0.0, 1.0]
],
  "dcmmeta_shape": [116, 116, 72, 289],
  "dcmmeta_slice_dim": 2,
  "dcmmeta_version": 0.6,
  "global": {
    "const": {
      "AcquisitionMatrix": [116, 0, 0, 116],
      "AngioFlag": "N",
      "BitsAllocated": 16,
      "BitsStored": 16,
      "BodyPartExamined": "HEAD",
      "Columns": 1044,
      "EchoNumbers": 1,
      "EchoTime": 30.0,
      "EchoTrainLength": 50,
      "FlipAngle": 81.0,
      "HighBit": 15,
      "ImageOrientationPatient": [0.9999359289, 0.00397604428292, 0.01059854550227, -0.0034904985294, 0.99896080170968, -0.045443735185],
      "ImagePositionPatient": [-985.40134234647, -1005.7459692172, -37.264004326866],
      "ImageType": [
        "ORIGINAL",
        "PRIMARY",
        "M",
        "MB",
        "ND",
        "MOSAIC"
],
      "ImagedNucleus": "1H",
      "ImagingFrequency": 123.260557,
      "InPlanePhaseEncodingDirection": "COL",
      "LargestImagePixelValue": 65535,
      "MRAcquisitionType": "2D",
      "MagneticFieldStrength": 3.0,
      "Manufacturer": "SIEMENS",
      "ManufacturerModelName": "Prisma",
      "Modality": "MR",
      "NumberOfAverages": 1.0,
      "NumberOfPhaseEncodingSteps": 101,
      "PercentPhaseFieldOfView": 100.0,
      "PercentSampling": 100.0,
      "PerformedProcedureStepStartTime": "130757.196000",
      "PhotometricInterpretation": "MONOCHROME2",
      "PixelBandwidth": 1435.0,
      "PixelRepresentation": 0,
      "PixelSpacing": [1.8965517282486, 1.8965517282486],
      "ProtocolName": "mbep2d_bold_MB3_test1",
      "RepetitionTime": 2000.0,
      "Rows": 1044,
      "SAR": 0.05507589543958,
      "SamplesPerPixel": 1,
      "ScanOptions": [
        "PFP",
        "FS"
],
      "ScanningSequence": "EP",
      "SequenceName": "epfid2d1_116",
      "SequenceVariant": [
        "SK",
        "SS"
],
      "SeriesDescription": "mbep2d_bold_MB3_test1",
      "SeriesNumber": 6,
      "SeriesTime": "131913.294000",
      "SliceLocation": -72.277113799743,
      "SliceThickness": 1.8999999761581,
      "SmallestImagePixelValue": 0,
      "SoftwareVersions": "syngo MR D13D",
      "SpacingBetweenSlices": 1.9000000228497,
      "SpecificCharacterSet": "ISO_IR 100",
      "StudyID": "1",
      "StudyTime": "130757.111000",
      "TimeOfLastCalibration": ["123723.000000", "123723.000000"],
      "TransmitCoilName": "Body",
      "VariableFlipAngleFlag": "N",
      "WindowCenterWidthExplanation": "Algo1",
      "dBdt": 0.0},
    "slices": {}
  },
  "time": {
    "samples": {
      "AcquisitionNumber": [1, 2, 3, 4, 5, 6, 7, 8, 9, 10, 11, 12, 13, 14, 15, 16, 17, 18, 19, 20, 21, 22, 23, 24, 25, 26, 27, 28, 29, 30, 31, 32, 33, 34, 35, 36, 37, 38, 39, 40, 41, 42, 43, 44, 45, 46, 47, 48, 49, 50, 51, 52, 53, 54, 55, 56, 57, 58, 59, 60, 61, 62, 63, 64, 65, 66, 67, 68, 69, 70, 71, 72, 73, 74, 75, 76, 77, 78, 79, 80, 81, 82, 83, 84, 85, 86, 87, 88, 89, 90, 91, 92, 93, 94, 95, 96, 97, 98, 99, 100, 101, 102, 103, 104, 105, 106, 107, 108, 109, 110, 111, 112, 113, 114, 115, 116, 117, 118, 119, 120, 121, 122, 123, 124, 125, 126, 127, 128, 129, 130, 131, 132, 133, 134, 135, 136, 137, 138, 139, 140, 141, 142, 143, 144, 145, 146, 147, 148, 149, 150, 151, 152, 153, 154, 155, 156, 157, 158, 159, 160, 161, 162, 163, 164, 165, 166, 167, 168, 169, 170, 171, 172, 173, 174, 175, 176, 177, 178, 179, 180, 181, 182, 183, 184, 185, 186, 187, 188, 189, 190, 191, 192, 193, 194, 195, 196, 197, 198, 199, 200, 201, 202, 203, 204, 205, 206, 207, 208, 209, 210, 211, 212, 213, 214, 215, 216, 217, 218, 219, 220, 221, 222, 223, 224, 225, 226, 227, 228, 229, 230, 231, 232, 233, 234, 235, 236, 237, 238, 239, 240, 241, 242, 243, 244, 245, 246, 247, 248, 249, 250, 251, 252, 253, 254, 255, 256, 257, 258, 259, 260, 261, 262, 263, 264, 265, 266, 267, 268, 269, 270, 271, 272, 273, 274, 275, 276, 277, 278, 279, 280, 281, 282, 283, 284, 285, 286, 287, 288, 289],
      "AcquisitionTime": ["131902.165000", "131904.165000", "131906.165000", "131908.165000", "131910.165000", "131912.165000", "131914.165000", "131916.165000", "131918.165000", "131920.165000", "131922.165000", "131924.165000", "131926.165000", "131928.165000", "131930.165000", "131932.165000", "131934.165000", "131936.165000", "131938.165000", "131940.165000", "131942.165000", "131944.165000", "131946.165000", "131948.165000", "131950.165000", "131952.165000", "131954.165000", "131956.165000", "131958.165000", "132000.165000", "132002.165000", "132004.165000", "132006.165000", "132008.165000", "132010.165000", "132012.165000", "132014.165000", "132016.165000", "132018.165000", "132020.165000", "132022.165000", "132024.165000", "132026.165000", "132028.165000", "132030.165000", "132032.165000", "132034.165000", "132036.165000", "132038.165000", "132040.165000", "132042.165000", "132044.165000", "132046.165000", "132048.165000", "132050.165000", "132052.165000", "132054.165000", "132056.165000", "132058.165000", "132100.165000", "132102.165000", "132104.165000", "132106.165000", "132108.165000", "132110.165000", "132112.165000", "132114.165000", "132116.165000", "132118.165000", "132120.165000", "132122.165000", "132124.165000", "132126.165000", "132128.165000", "132130.165000", "132132.165000", "132134.165000", "132136.165000", "132138.165000", "132140.165000", "132142.165000", "132144.165000", "132146.165000", "132148.165000", "132150.165000", "132152.165000", "132154.165000", "132156.165000", "132158.165000", "132200.165000", "132202.165000", "132204.165000", "132206.165000", "132208.165000", "132210.165000", "132212.165000", "132214.165000", "132216.165000", "132218.165000", "132220.165000", "132222.165000", "132224.165000", "132226.165000", "132228.165000", "132230.165000", "132232.165000", "132234.165000", "132236.165000", "132238.165000", "132240.165000", "132242.165000", "132244.165000", "132246.165000", "132248.165000", "132250.165000", "132252.165000", "132254.165000", "132256.165000", "132258.165000", "132300.165000", "132302.165000", "132304.165000", "132306.165000", "132308.165000", "132310.165000", "132312.165000", "132314.165000", "132316.165000", "132318.165000", "132320.165000", "132322.165000", "132324.165000", "132326.165000", "132328.165000", "132330.165000", "132332.165000", "132334.165000", "132336.165000", "132338.165000", "132340.165000", "132342.165000", "132344.165000", "132346.165000", "132348.165000", "132350.165000", "132352.165000", "132354.165000", "132356.165000", "132358.165000", "132400.165000", "132402.165000", "132404.165000", "132406.165000", "132408.165000", "132410.165000", "132412.165000", "132414.165000", "132416.165000", "132418.165000", "132420.165000", "132422.165000", "132424.165000", "132426.165000", "132428.165000", "132430.165000", "132432.165000", "132434.165000", "132436.167500", "132438.167500", "132440.167500", "132442.167500", "132444.167500", "132446.167500", "132448.167500", "132450.167500", "132452.167500", "132454.167500", "132456.167500", "132458.167500", "132500.167500", "132502.167500", "132504.167500", "132506.167500", "132508.167500", "132510.167500", "132512.167500", "132514.167500", "132516.167500", "132518.167500", "132520.167500", "132522.167500", "132524.167500", "132526.167500", "132528.167500", "132530.167500", "132532.167500", "132534.167500", "132536.167500", "132538.167500", "132540.167500", "132542.167500", "132544.167500", "132546.167500", "132548.167500", "132550.167500", "132552.167500", "132554.167500", "132556.167500", "132558.167500", "132600.167500", "132602.167500", "132604.167500", "132606.167500", "132608.167500", "132610.167500", "132612.167500", "132614.167500", "132616.167500", "132618.167500", "132620.167500", "132622.167500", "132624.167500", "132626.167500", "132628.167500", "132630.167500", "132632.167500", "132634.167500", "132636.167500", "132638.167500", "132640.167500", "132642.167500", "132644.167500", "132646.167500", "132648.167500", "132650.167500", "132652.167500", "132654.167500", "132656.167500", "132658.167500", "132700.167500", "132702.167500", "132704.167500", "132706.167500", "132708.167500", "132710.167500", "132712.167500", "132714.167500", "132716.167500", "132718.167500", "132720.167500", "132722.167500", "132724.167500", "132726.167500", "132728.167500", "132730.167500", "132732.167500", "132734.167500", "132736.167500", "132738.167500", "132740.167500", "132742.167500", "132744.167500", "132746.167500", "132748.167500", "132750.167500", "132752.167500", "132754.167500", "132756.167500", "132758.167500", "132800.167500", "132802.167500", "132804.167500", "132806.167500", "132808.167500", "132810.167500", "132812.167500", "132814.167500", "132816.167500", "132818.167500", "132820.167500", "132822.167500", "132824.167500", "132826.167500", "132828.167500", "132830.167500", "132832.167500", "132834.167500", "132836.167500", "132838.167500"],
      "ContentTime": ["131913.300000", "131914.292000", "131914.296000", "131915.792000", "131915.796000", "131917.292000", "131917.296000", "131918.792000", "131920.797000", "131922.791000", "131924.791000", "131926.791000", "131928.792000", "131930.791000", "131932.792000", "131934.792000", "131936.792000", "131938.791000", "131940.790000", "131942.791000", "131944.793000", "131946.792000", "131948.793000", "131950.793000", "131952.793000", "131954.793000", "131956.792000", "131958.792000", "132000.791000", "132002.793000", "132004.793000", "132006.793000", "132008.792000", "132010.792000", "132012.793000", "132014.792000", "132016.792000", "132018.791000", "132020.793000", "132022.793000", "132024.792000", "132026.792000", "132028.792000", "132030.792000", "132032.791000", "132034.791000", "132036.792000", "132038.792000", "132040.792000", "132042.792000", "132044.793000", "132046.793000", "132048.790000", "132050.790000", "132052.790000", "132054.791000", "132056.793000", "132058.793000", "132100.791000", "132102.791000", "132104.792000", "132106.790000", "132108.791000", "132110.791000", "132112.793000", "132114.792000", "132116.792000", "132118.791000", "132120.791000", "132122.791000", "132124.790000", "132126.790000", "132128.792000", "132130.791000", "132132.791000", "132134.811000", "132136.791000", "132138.791000", "132140.792000", "132142.791000", "132144.791000", "132146.791000", "132148.792000", "132150.792000", "132152.792000", "132154.793000", "132156.792000", "132158.791000", "132200.791000", "132202.790000", "132204.792000", "132206.791000", "132208.792000", "132210.792000", "132212.791000", "132214.792000", "132216.791000", "132218.791000", "132220.790000", "132222.791000", "132224.791000", "132226.792000", "132228.791000", "132230.791000", "132232.792000", "132234.790000", "132236.790000", "132238.790000", "132240.791000", "132242.791000", "132244.791000", "132246.791000", "132248.791000", "132250.791000", "132252.790000", "132254.790000", "132256.790000", "132258.791000", "132300.791000", "132302.791000", "132304.791000", "132306.791000", "132308.790000", "132310.790000", "132312.790000", "132314.791000", "132316.791000", "132318.791000", "132320.791000", "132322.791000", "132324.791000", "132326.790000", "132328.791000", "132330.790000", "132332.791000", "132334.791000", "132336.791000", "132338.813000", "132340.792000", "132342.792000", "132344.791000", "132346.791000", "132348.791000", "132350.792000", "132352.792000", "132354.793000", "132356.792000", "132358.792000", "132400.792000", "132402.792000", "132404.792000", "132406.790000", "132408.793000", "132410.791000", "132412.793000", "132414.792000", "132416.793000", "132418.792000", "132420.791000", "132422.791000", "132424.792000", "132426.792000", "132428.793000", "132430.793000", "132432.792000", "132434.792000", "132436.792000", "132438.792000", "132440.792000", "132442.792000", "132444.793000", "132446.792000", "132448.791000", "132450.793000", "132452.793000", "132454.792000", "132456.792000", "132458.792000", "132500.792000", "132502.792000", "132504.792000", "132506.792000", "132508.793000", "132510.793000", "132512.791000", "132514.792000", "132516.792000", "132518.792000", "132520.793000", "132522.793000", "132524.792000", "132526.792000", "132528.792000", "132530.791000", "132532.791000", "132534.793000", "132536.794000", "132538.792000", "132540.806000", "132542.793000", "132544.792000", "132546.791000", "132548.791000", "132550.792000", "132552.792000", "132554.793000", "132556.792000", "132558.793000", "132600.792000", "132602.792000", "132604.791000", "132606.791000", "132608.792000", "132610.792000", "132612.792000", "132614.792000", "132616.792000", "132618.792000", "132620.792000", "132622.791000", "132624.792000", "132626.792000", "132628.793000", "132630.792000", "132632.793000", "132634.794000", "132636.792000", "132638.792000", "132640.792000", "132642.791000", "132644.792000", "132646.792000", "132648.793000", "132650.793000", "132652.793000", "132654.793000", "132656.790000", "132658.790000", "132700.792000", "132702.792000", "132704.793000", "132706.792000", "132708.793000", "132710.793000", "132712.793000", "132714.791000", "132716.792000", "132718.791000", "132720.792000", "132722.792000", "132724.793000", "132726.793000", "132728.791000", "132730.791000", "132732.791000", "132734.792000", "132736.793000", "132738.793000", "132740.791000", "132742.792000", "132744.793000", "132746.792000", "132748.791000", "132750.792000", "132752.792000", "132754.792000", "132756.793000", "132758.792000", "132800.793000", "132802.793000", "132804.793000", "132806.791000", "132808.792000", "132810.792000", "132812.792000", "132814.792000", "132816.792000", "132818.793000", "132820.793000", "132822.793000", "132824.791000", "132826.792000", "132828.792000", "132830.792000", "132832.792000", "132834.793000", "132836.793000", "132838.793000", "132840.464000"],
      "InstanceCreationTime": ["131913.300000", "131914.292000", "131914.296000", "131915.792000", "131915.796000", "131917.292000", "131917.296000", "131918.792000", "131920.797000", "131922.791000", "131924.791000", "131926.791000", "131928.792000", "131930.791000", "131932.792000", "131934.792000", "131936.792000", "131938.791000", "131940.790000", "131942.791000", "131944.793000", "131946.792000", "131948.793000", "131950.793000", "131952.793000", "131954.793000", "131956.792000", "131958.792000", "132000.791000", "132002.793000", "132004.793000", "132006.793000", "132008.792000", "132010.792000", "132012.793000", "132014.792000", "132016.792000", "132018.791000", "132020.793000", "132022.793000", "132024.792000", "132026.792000", "132028.792000", "132030.792000", "132032.791000", "132034.791000", "132036.792000", "132038.792000", "132040.792000", "132042.792000", "132044.793000", "132046.793000", "132048.790000", "132050.790000", "132052.790000", "132054.791000", "132056.793000", "132058.793000", "132100.791000", "132102.791000", "132104.792000", "132106.790000", "132108.791000", "132110.791000", "132112.793000", "132114.792000", "132116.792000", "132118.791000", "132120.791000", "132122.791000", "132124.790000", "132126.790000", "132128.792000", "132130.791000", "132132.791000", "132134.811000", "132136.791000", "132138.791000", "132140.792000", "132142.791000", "132144.791000", "132146.791000", "132148.792000", "132150.792000", "132152.792000", "132154.793000", "132156.792000", "132158.791000", "132200.791000", "132202.790000", "132204.792000", "132206.791000", "132208.792000", "132210.792000", "132212.791000", "132214.792000", "132216.791000", "132218.791000", "132220.790000", "132222.791000", "132224.791000", "132226.792000", "132228.791000", "132230.791000", "132232.792000", "132234.790000", "132236.790000", "132238.790000", "132240.791000", "132242.791000", "132244.791000", "132246.791000", "132248.791000", "132250.791000", "132252.790000", "132254.790000", "132256.790000", "132258.791000", "132300.791000", "132302.791000", "132304.791000", "132306.791000", "132308.790000", "132310.790000", "132312.790000", "132314.791000", "132316.791000", "132318.791000", "132320.791000", "132322.791000", "132324.791000", "132326.790000", "132328.791000", "132330.790000", "132332.791000", "132334.791000", "132336.791000", "132338.813000", "132340.792000", "132342.792000", "132344.791000", "132346.791000", "132348.791000", "132350.792000", "132352.792000", "132354.793000", "132356.792000", "132358.792000", "132400.792000", "132402.792000", "132404.792000", "132406.790000", "132408.793000", "132410.791000", "132412.793000", "132414.792000", "132416.793000", "132418.792000", "132420.791000", "132422.791000", "132424.792000", "132426.792000", "132428.793000", "132430.793000", "132432.792000", "132434.792000", "132436.792000", "132438.792000", "132440.792000", "132442.792000", "132444.793000", "132446.792000", "132448.791000", "132450.793000", "132452.793000", "132454.792000", "132456.792000", "132458.792000", "132500.792000", "132502.792000", "132504.792000", "132506.792000", "132508.793000", "132510.793000", "132512.791000", "132514.792000", "132516.792000", "132518.792000", "132520.793000", "132522.793000", "132524.792000", "132526.792000", "132528.792000", "132530.791000", "132532.791000", "132534.793000", "132536.794000", "132538.792000", "132540.806000", "132542.793000", "132544.792000", "132546.791000", "132548.791000", "132550.792000", "132552.792000", "132554.793000", "132556.792000", "132558.793000", "132600.792000", "132602.792000", "132604.791000", "132606.791000", "132608.792000", "132610.792000", "132612.792000", "132614.792000", "132616.792000", "132618.792000", "132620.792000", "132622.791000", "132624.792000", "132626.792000", "132628.793000", "132630.792000", "132632.793000", "132634.794000", "132636.792000", "132638.792000", "132640.792000", "132642.791000", "132644.792000", "132646.792000", "132648.793000", "132650.793000", "132652.793000", "132654.793000", "132656.790000", "132658.790000", "132700.792000", "132702.792000", "132704.793000", "132706.792000", "132708.793000", "132710.793000", "132712.793000", "132714.791000", "132716.792000", "132718.791000", "132720.792000", "132722.792000", "132724.793000", "132726.793000", "132728.791000", "132730.791000", "132732.791000", "132734.792000", "132736.793000", "132738.793000", "132740.791000", "132742.792000", "132744.793000", "132746.792000", "132748.791000", "132750.792000", "132752.792000", "132754.792000", "132756.793000", "132758.792000", "132800.793000", "132802.793000", "132804.793000", "132806.791000", "132808.792000", "132810.792000", "132812.792000", "132814.792000", "132816.792000", "132818.793000", "132820.793000", "132822.793000", "132824.791000", "132826.792000", "132828.792000", "132830.792000", "132832.792000", "132834.793000", "132836.793000", "132838.793000", "132840.464000"],
      "InstanceNumber": [1, 2, 3, 4, 5, 6, 7, 8, 9, 10, 11, 12, 13, 14, 15, 16, 17, 18, 19, 20, 21, 22, 23, 24, 25, 26, 27, 28, 29, 30, 31, 32, 33, 34, 35, 36, 37, 38, 39, 40, 41, 42, 43, 44, 45, 46, 47, 48, 49, 50, 51, 52, 53, 54, 55, 56, 57, 58, 59, 60, 61, 62, 63, 64, 65, 66, 67, 68, 69, 70, 71, 72, 73, 74, 75, 76, 77, 78, 79, 80, 81, 82, 83, 84, 85, 86, 87, 88, 89, 90, 91, 92, 93, 94, 95, 96, 97, 98, 99, 100, 101, 102, 103, 104, 105, 106, 107, 108, 109, 110, 111, 112, 113, 114, 115, 116, 117, 118, 119, 120, 121, 122, 123, 124, 125, 126, 127, 128, 129, 130, 131, 132, 133, 134, 135, 136, 137, 138, 139, 140, 141, 142, 143, 144, 145, 146, 147, 148, 149, 150, 151, 152, 153, 154, 155, 156, 157, 158, 159, 160, 161, 162, 163, 164, 165, 166, 167, 168, 169, 170, 171, 172, 173, 174, 175, 176, 177, 178, 179, 180, 181, 182, 183, 184, 185, 186, 187, 188, 189, 190, 191, 192, 193, 194, 195, 196, 197, 198, 199, 200, 201, 202, 203, 204, 205, 206, 207, 208, 209, 210, 211, 212, 213, 214, 215, 216, 217, 218, 219, 220, 221, 222, 223, 224, 225, 226, 227, 228, 229, 230, 231, 232, 233, 234, 235, 236, 237, 238, 239, 240, 241, 242, 243, 244, 245, 246, 247, 248, 249, 250, 251, 252, 253, 254, 255, 256, 257, 258, 259, 260, 261, 262, 263, 264, 265, 266, 267, 268, 269, 270, 271, 272, 273, 274, 275, 276, 277, 278, 279, 280, 281, 282, 283, 284, 285, 286, 287, 288, 289],
      "WindowCenter": [16491.0, 16483.0, 16463.0, 16450.0, 16440.0, 16443.0, 16440.0, 16455.0, 16436.0, 16455.0, 16440.0, 16439.0, 16438.0, 16446.0, 16433.0, 16438.0, 16438.0, 16423.0, 16438.0, 16428.0, 16426.0, 16428.0, 16439.0, 16424.0, 16439.0, 16446.0, 16411.0, 16440.0, 16418.0, 16421.0, 16411.0, 16432.0, 16423.0, 16420.0, 16421.0, 16428.0, 16429.0, 16419.0, 16434.0, 16435.0, 16431.0, 16425.0, 16431.0, 16434.0, 16435.0, 16425.0, 16421.0, 16416.0, 16439.0, 16442.0, 16417.0, 16407.0, 16417.0, 16419.0, 16428.0, 16421.0, 16428.0, 16418.0, 16426.0, 16424.0, 16416.0, 16439.0, 16434.0, 16423.0, 16429.0, 16432.0, 16432.0, 16437.0, 16437.0, 16431.0, 16437.0, 16422.0, 16434.0, 16419.0, 16441.0, 16429.0, 16416.0, 16445.0, 16442.0, 16439.0, 16440.0, 16439.0, 16441.0, 16427.0, 16432.0, 16424.0, 16433.0, 16420.0, 16435.0, 16427.0, 16439.0, 16437.0, 16438.0, 16434.0, 16429.0, 16439.0, 16445.0, 16449.0, 16424.0, 16434.0, 16436.0, 16427.0, 16445.0, 16436.0, 16445.0, 16445.0, 16443.0, 16447.0, 16443.0, 16431.0, 16430.0, 16424.0, 16443.0, 16441.0, 16451.0, 16447.0, 16432.0, 16439.0, 16421.0, 16427.0, 16437.0, 16442.0, 16453.0, 16430.0, 16430.0, 16422.0, 16442.0, 16448.0, 16435.0, 16433.0, 16453.0, 16444.0, 16456.0, 16452.0, 16450.0, 16449.0, 16443.0, 16448.0, 16447.0, 16435.0, 16442.0, 16460.0, 16448.0, 16445.0, 16439.0, 16433.0, 16457.0, 16442.0, 16443.0, 16445.0, 16460.0, 16444.0, 16448.0, 16446.0, 16440.0, 16435.0, 16441.0, 16467.0, 16445.0, 16451.0, 16444.0, 16450.0, 16443.0, 16447.0, 16456.0, 16441.0, 16433.0, 16455.0, 16451.0, 16458.0, 16451.0, 16450.0, 16446.0, 16439.0, 16450.0, 16445.0, 16445.0, 16438.0, 16454.0, 16440.0, 16464.0, 16442.0, 16448.0, 16448.0, 16437.0, 16441.0, 16457.0, 16456.0, 16447.0, 16437.0, 16447.0, 16450.0, 16453.0, 16456.0, 16441.0, 16431.0, 16425.0, 16432.0, 16448.0, 16454.0, 16432.0, 16416.0, 16401.0, 16424.0, 16436.0, 16441.0, 16447.0, 16437.0, 16453.0, 16439.0, 16442.0, 16465.0, 16459.0, 16465.0, 16448.0, 16462.0, 16464.0, 16470.0, 16478.0, 16451.0, 16400.0, 16385.0, 16404.0, 16415.0, 16409.0, 16406.0, 16425.0, 16426.0, 16430.0, 16435.0, 16439.0, 16438.0, 16425.0, 16433.0, 16443.0, 16428.0, 16437.0, 16426.0, 16428.0, 16432.0, 16431.0, 16432.0, 16432.0, 16428.0, 16427.0, 16432.0, 16444.0, 16442.0, 16434.0, 16439.0, 16450.0, 16433.0, 16439.0, 16420.0, 16454.0, 16440.0, 16443.0, 16433.0, 16439.0, 16445.0, 16432.0, 16433.0, 16436.0, 16441.0, 16440.0, 16443.0, 16439.0, 16442.0, 16447.0, 16458.0, 16437.0, 16446.0, 16441.0, 16438.0, 16444.0, 16437.0, 16435.0, 16437.0, 16442.0, 16453.0, 16460.0, 16445.0, 16453.0, 16453.0, 16457.0, 16454.0, 16428.0, 16440.0, 16444.0],
      "WindowWidth": [46519.0, 46482.0, 46491.0, 46480.0, 46473.0, 46462.0, 46540.0, 46551.0, 46537.0, 46473.0, 46486.0, 46499.0, 46500.0, 46479.0, 46482.0, 46446.0, 46432.0, 46446.0, 46419.0, 46400.0, 46370.0, 46373.0, 46380.0, 46449.0, 46448.0, 46399.0, 46387.0, 46343.0, 46352.0, 46395.0, 46401.0, 46364.0, 46357.0, 46367.0, 46368.0, 46414.0, 46415.0, 46395.0, 46393.0, 46367.0, 46350.0, 46371.0, 46365.0, 46354.0, 46380.0, 46371.0, 46342.0, 46377.0, 46383.0, 46346.0, 46340.0, 46291.0, 46313.0, 46341.0, 46361.0, 46344.0, 46362.0, 46379.0, 46374.0, 46385.0, 46368.0, 46359.0, 46367.0, 46331.0, 46309.0, 46351.0, 46392.0, 46344.0, 46343.0, 46326.0, 46316.0, 46306.0, 46302.0, 46291.0, 46294.0, 46311.0, 46339.0, 46390.0, 46428.0, 46399.0, 46371.0, 46357.0, 46373.0, 46375.0, 46353.0, 46320.0, 46339.0, 46344.0, 46328.0, 46361.0, 46373.0, 46371.0, 46358.0, 46380.0, 46429.0, 46412.0, 46376.0, 46299.0, 46293.0, 46315.0, 46342.0, 46401.0, 46456.0, 46450.0, 46429.0, 46415.0, 46400.0, 46378.0, 46375.0, 46340.0, 46338.0, 46360.0, 46479.0, 46504.0, 46446.0, 46337.0, 46287.0, 46239.0, 46251.0, 46322.0, 46358.0, 46350.0, 46292.0, 46325.0, 46338.0, 46371.0, 46361.0, 46352.0, 46343.0, 46395.0, 46475.0, 46481.0, 46451.0, 46435.0, 46433.0, 46432.0, 46427.0, 46431.0, 46417.0, 46395.0, 46412.0, 46386.0, 46390.0, 46390.0, 46398.0, 46421.0, 46426.0, 46386.0, 46359.0, 46402.0, 46428.0, 46417.0, 46392.0, 46350.0, 46384.0, 46474.0, 46504.0, 46432.0, 46403.0, 46407.0, 46401.0, 46433.0, 46442.0, 46404.0, 46411.0, 46411.0, 46419.0, 46450.0, 46461.0, 46466.0, 46447.0, 46405.0, 46389.0, 46411.0, 46433.0, 46417.0, 46416.0, 46436.0, 46473.0, 46491.0, 46457.0, 46427.0, 46392.0, 46378.0, 46356.0, 46399.0, 46412.0, 46437.0, 46404.0, 46382.0, 46376.0, 46419.0, 46422.0, 46384.0, 46385.0, 46406.0, 46408.0, 46484.0, 46443.0, 46319.0, 46154.0, 46049.0, 46115.0, 46253.0, 46317.0, 46306.0, 46310.0, 46330.0, 46329.0, 46371.0, 46414.0, 46431.0, 46426.0, 46416.0, 46455.0, 46493.0, 46522.0, 46514.0, 46480.0, 46444.0, 46091.0, 46279.0, 46310.0, 46266.0, 46196.0, 46273.0, 46393.0, 46421.0, 46398.0, 46322.0, 46289.0, 46327.0, 46381.0, 46402.0, 46370.0, 46332.0, 46353.0, 46382.0, 46358.0, 46361.0, 46362.0, 46323.0, 46270.0, 46279.0, 46370.0, 46375.0, 46332.0, 46330.0, 46325.0, 46354.0, 46349.0, 46350.0, 46341.0, 46353.0, 46367.0, 46367.0, 46328.0, 46335.0, 46329.0, 46334.0, 46337.0, 46349.0, 46350.0, 46408.0, 46408.0, 46358.0, 46367.0, 46396.0, 46412.0, 46395.0, 46391.0, 46346.0, 46342.0, 46325.0, 46316.0, 46349.0, 46350.0, 46327.0, 46331.0, 46352.0, 46370.0, 46372.0, 46364.0, 46338.0, 46355.0, 46392.0, 46421.0, 46404.0, 46435.0]
    },
    "slices": {}
  }
}