{
  "AcquisitionMatrixPE": 116,
  "AcquisitionNumber": 1,
  "AcquisitionTime": "13:51:57.467500",
  "BandwidthPerPixelPhaseEncode": 18.539,
  "BaseResolution": 116,
  "BodyPartExamined": "HEAD",
  "ConsistencyInfo": "N4_VD13D_LATEST_20130810",
  "ConversionSoftware": "dcm2niix",
  "ConversionSoftwareVersion": "v1.0.20190410  (JP2:OpenJPEG) (JP-LS:CharLS) GCC5.5.0",
  "DerivedVendorReportedEchoSpacing": 0.000930006,
  "DeviceSerialNumber": "66014",
  "DwellTime": 3e-06,
  "EchoTime": 0.03,
  "EchoTrainLength": 50,
  "EffectiveEchoSpacing": 0.000465003,
  "FlipAngle": 81,
  "ImageComments": "Unaliased_MB3_PE4",
  "ImageOrientationPatientDICOM": [0.999936, 0.00397604, 0.0105985, -0.0034905, 0.998961, -0.0454437],
  "ImageType": [
    "ORIGINAL",
    "PRIMARY",
    "M",
    "MB",
    "ND",
    "MOSAIC"
],
  "ImagingFrequency": 123.261,
  "InPlanePhaseEncodingDirectionDICOM": "COL",
  "InstitutionAddress": "Yiheyuan_Road_5_Beijing_Haidian_CN_100871",
  "InstitutionName": "Peking_Univeristy",
  "InstitutionalDepartmentName": "Department",
  "MRAcquisitionType": "2D",
  "MagneticFieldStrength": 3,
  "Manufacturer": "Siemens",
  "ManufacturersModelName": "Prisma",
  "Modality": "MR",
  "MultibandAccelerationFactor": 3,
  "ParallelReductionFactorInPlane": 2,
  "PartialFourier": 0.875,
  "PatientPosition": "HFS",
  "PercentPhaseFOV": 100,
  "PhaseEncodingDirection": "j-",
  "PhaseEncodingSteps": 101,
  "PhaseResolution": 1,
  "PixelBandwidth": 1435,
  "ProcedureStepDescription": "Research_Projects_64CH",
  "ProtocolName": "mbep2d_bold_MB3_loca1",
  "PulseSequenceDetails": "%CustomerSeq%_cmrr_mbep2d_bold",
  "ReceiveCoilActiveElements": "HC1-6",
  "ReceiveCoilName": "HeadNeck_64",
  "ReconMatrixPE": 116,
  "RefLinesPE": 44,
  "RepetitionTime": 2,
  "SAR": 0.0540479,
  "ScanOptions": "PFP_FS",
  "ScanningSequence": "EP",
  "SequenceName": "epfid2d1_116",
  "SequenceVariant": "SK_SS",
  "SeriesDescription": "mbep2d_bold_MB3_loca1",
  "SeriesNumber": 9,
  "ShimSetting": [-3451, -2107, -1928, 377, -4, -232, 66, 7],
  "SliceThickness": 1.9,
  "SliceTiming": [0, 0.9075, 1.815, 0.7425, 1.65, 0.5775, 1.485, 0.4125, 1.32, 0.2475, 1.155, 0.0825, 0.99, 1.8975, 0.825, 1.7325, 0.66, 1.5675, 0.495, 1.4025, 0.33, 1.2375, 0.165, 1.0725, 0, 0.9075, 1.815, 0.7425, 1.65, 0.5775, 1.485, 0.4125, 1.32, 0.2475, 1.155, 0.0825, 0.99, 1.8975, 0.825, 1.7325, 0.66, 1.5675, 0.495, 1.4025, 0.33, 1.2375, 0.165, 1.0725, 0, 0.9075, 1.815, 0.7425, 1.65, 0.5775, 1.485, 0.4125, 1.32, 0.2475, 1.155, 0.0825, 0.99, 1.8975, 0.825, 1.7325, 0.66, 1.5675, 0.495, 1.4025, 0.33, 1.2375, 0.165, 1.0725],
  "SoftwareVersions": "syngo_MR_D13D",
  "SpacingBetweenSlices": 1.9,
  "StationName": "AWP66014",
  "TaskName": "localizer",
  "TotalReadoutTime": 0.0534753,
  "TxRefAmp": 222.44,
  "WipMemBlock": "d2041ae3-2082-4109-859c-1748419f76cc||Sequence: vd13d/master r/0735857; Nov 19 2014 09:21:40 by eja",
  "dcmmeta_affine": [
    [-1.896430253982544, -0.006619911175221205, 0.0204596146941185, 109.2906494140625],
    [-0.0075407736003398895, 1.8945808410644531, -0.08626727759838104, -94.71525573730469],
    [0.02010069042444229, 0.08618639409542084, 1.8979302644729614, -77.83920288085938],
    [0.0, 0.0, 0.0, 1.0]
],
  "dcmmeta_reorient_transform": [
    [0.0, -1.0, 0.0, 115.0],
    [1.0, 0.0, 0.0, 0.0],
    [0.0, 0.0, 1.0, 0.0],
    [0.0, 0.0, 0.0, 1.0]
],
  "dcmmeta_shape": [116, 116, 72, 164],
  "dcmmeta_slice_dim": 2,
  "dcmmeta_version": 0.6,
  "global": {
    "const": {
      "AcquisitionMatrix": [116, 0, 0, 116],
      "AngioFlag": "N",
      "BitsAllocated": 16,
      "BitsStored": 16,
      "BodyPartExamined": "HEAD",
      "Columns": 1044,
      "EchoNumbers": 1,
      "EchoTime": 30.0,
      "EchoTrainLength": 50,
      "FlipAngle": 81.0,
      "HighBit": 15,
      "ImageOrientationPatient": [0.9999359289, 0.00397604428292, 0.01059854550227, -0.0034904985294, 0.99896080170968, -0.045443735185],
      "ImagePositionPatient": [-985.40134234647, -1005.7459692172, -37.264004326866],
      "ImageType": [
        "ORIGINAL",
        "PRIMARY",
        "M",
        "MB",
        "ND",
        "MOSAIC"
],
      "ImagedNucleus": "1H",
      "ImagingFrequency": 123.260563,
      "InPlanePhaseEncodingDirection": "COL",
      "LargestImagePixelValue": 65535,
      "MRAcquisitionType": "2D",
      "MagneticFieldStrength": 3.0,
      "Manufacturer": "SIEMENS",
      "ManufacturerModelName": "Prisma",
      "Modality": "MR",
      "NumberOfAverages": 1.0,
      "NumberOfPhaseEncodingSteps": 101,
      "PercentPhaseFieldOfView": 100.0,
      "PercentSampling": 100.0,
      "PerformedProcedureStepStartTime": "130757.196000",
      "PhotometricInterpretation": "MONOCHROME2",
      "PixelBandwidth": 1435.0,
      "PixelRepresentation": 0,
      "PixelSpacing": [1.8965517282486, 1.8965517282486],
      "ProtocolName": "mbep2d_bold_MB3_loca1",
      "RepetitionTime": 2000.0,
      "Rows": 1044,
      "SAR": 0.05404786906614,
      "SamplesPerPixel": 1,
      "ScanOptions": [
        "PFP",
        "FS"
],
      "ScanningSequence": "EP",
      "SequenceName": "epfid2d1_116",
      "SequenceVariant": [
        "SK",
        "SS"
],
      "SeriesDescription": "mbep2d_bold_MB3_loca1",
      "SeriesNumber": 9,
      "SeriesTime": "135209.476000",
      "SliceLocation": -72.277113799743,
      "SliceThickness": 1.8999999761581,
      "SmallestImagePixelValue": 0,
      "SoftwareVersions": "syngo MR D13D",
      "SpacingBetweenSlices": 1.9000000228497,
      "SpecificCharacterSet": "ISO_IR 100",
      "StudyID": "1",
      "StudyTime": "130757.111000",
      "TimeOfLastCalibration": ["123723.000000", "123723.000000"],
      "TransmitCoilName": "Body",
      "VariableFlipAngleFlag": "N",
      "WindowCenterWidthExplanation": "Algo1",
      "dBdt": 0.0},
    "slices": {}
  },
  "time": {
    "samples": {
      "AcquisitionNumber": [1, 2, 3, 4, 5, 6, 7, 8, 9, 10, 11, 12, 13, 14, 15, 16, 17, 18, 19, 20, 21, 22, 23, 24, 25, 26, 27, 28, 29, 30, 31, 32, 33, 34, 35, 36, 37, 38, 39, 40, 41, 42, 43, 44, 45, 46, 47, 48, 49, 50, 51, 52, 53, 54, 55, 56, 57, 58, 59, 60, 61, 62, 63, 64, 65, 66, 67, 68, 69, 70, 71, 72, 73, 74, 75, 76, 77, 78, 79, 80, 81, 82, 83, 84, 85, 86, 87, 88, 89, 90, 91, 92, 93, 94, 95, 96, 97, 98, 99, 100, 101, 102, 103, 104, 105, 106, 107, 108, 109, 110, 111, 112, 113, 114, 115, 116, 117, 118, 119, 120, 121, 122, 123, 124, 125, 126, 127, 128, 129, 130, 131, 132, 133, 134, 135, 136, 137, 138, 139, 140, 141, 142, 143, 144, 145, 146, 147, 148, 149, 150, 151, 152, 153, 154, 155, 156, 157, 158, 159, 160, 161, 162, 163, 164],
      "AcquisitionTime": ["135157.467500", "135159.467500", "135201.467500", "135203.467500", "135205.467500", "135207.467500", "135209.467500", "135211.467500", "135213.467500", "135215.467500", "135217.467500", "135219.467500", "135221.467500", "135223.467500", "135225.467500", "135227.467500", "135229.467500", "135231.467500", "135233.467500", "135235.467500", "135237.467500", "135239.467500", "135241.467500", "135243.467500", "135245.467500", "135247.467500", "135249.467500", "135251.467500", "135253.467500", "135255.467500", "135257.467500", "135259.467500", "135301.467500", "135303.467500", "135305.467500", "135307.467500", "135309.467500", "135311.467500", "135313.467500", "135315.467500", "135317.467500", "135319.467500", "135321.467500", "135323.467500", "135325.467500", "135327.467500", "135329.467500", "135331.467500", "135333.467500", "135335.467500", "135337.467500", "135339.467500", "135341.467500", "135343.467500", "135345.467500", "135347.467500", "135349.467500", "135351.467500", "135353.467500", "135355.467500", "135357.467500", "135359.467500", "135401.467500", "135403.467500", "135405.467500", "135407.467500", "135409.467500", "135411.467500", "135413.467500", "135415.467500", "135417.467500", "135419.467500", "135421.467500", "135423.467500", "135425.467500", "135427.467500", "135429.467500", "135431.467500", "135433.467500", "135435.467500", "135437.467500", "135439.467500", "135441.467500", "135443.467500", "135445.467500", "135447.467500", "135449.467500", "135451.467500", "135453.467500", "135455.467500", "135457.467500", "135459.467500", "135501.467500", "135503.467500", "135505.467500", "135507.467500", "135509.467500", "135511.467500", "135513.467500", "135515.467500", "135517.467500", "135519.467500", "135521.467500", "135523.467500", "135525.467500", "135527.467500", "135529.467500", "135531.467500", "135533.467500", "135535.467500", "135537.467500", "135539.467500", "135541.467500", "135543.467500", "135545.467500", "135547.467500", "135549.467500", "135551.467500", "135553.467500", "135555.467500", "135557.470000", "135559.470000", "135601.470000", "135603.470000", "135605.470000", "135607.470000", "135609.470000", "135611.470000", "135613.470000", "135615.470000", "135617.470000", "135619.470000", "135621.470000", "135623.470000", "135625.470000", "135627.470000", "135629.470000", "135631.470000", "135633.470000", "135635.470000", "135637.470000", "135639.470000", "135641.470000", "135643.470000", "135645.470000", "135647.470000", "135649.470000", "135651.470000", "135653.470000", "135655.470000", "135657.470000", "135659.470000", "135701.470000", "135703.470000", "135705.470000", "135707.470000", "135709.470000", "135711.470000", "135713.470000", "135715.470000", "135717.470000", "135719.470000", "135721.470000", "135723.470000"],
      "ContentTime": ["135209.482000", "135210.474000", "135210.478000", "135211.474000", "135211.478000", "135212.474000", "135212.478000", "135214.474000", "135216.473000", "135218.473000", "135220.474000", "135222.474000", "135224.475000", "135226.476000", "135228.475000", "135230.475000", "135232.474000", "135234.474000", "135236.474000", "135238.474000", "135240.475000", "135242.475000", "135244.475000", "135246.475000", "135248.474000", "135250.474000", "135252.474000", "135254.474000", "135256.474000", "135258.475000", "135300.475000", "135302.475000", "135304.475000", "135306.474000", "135308.474000", "135310.474000", "135312.474000", "135314.474000", "135316.475000", "135318.474000", "135320.475000", "135322.475000", "135324.474000", "135326.474000", "135328.474000", "135330.473000", "135332.474000", "135334.475000", "135336.475000", "135338.475000", "135340.475000", "135342.474000", "135344.474000", "135346.475000", "135348.474000", "135350.475000", "135352.475000", "135354.475000", "135356.475000", "135358.474000", "135400.474000", "135402.474000", "135404.474000", "135406.474000", "135408.475000", "135410.475000", "135412.475000", "135414.475000", "135416.474000", "135418.474000", "135420.474000", "135422.473000", "135424.473000", "135426.475000", "135428.475000", "135430.475000", "135432.474000", "135434.474000", "135436.474000", "135438.474000", "135440.474000", "135442.474000", "135444.475000", "135446.475000", "135448.475000", "135450.475000", "135452.474000", "135454.474000", "135456.474000", "135458.474000", "135500.475000", "135502.475000", "135504.474000", "135506.475000", "135508.474000", "135510.474000", "135512.474000", "135514.474000", "135516.474000", "135518.475000", "135520.475000", "135522.475000", "135524.475000", "135526.474000", "135528.474000", "135530.474000", "135532.474000", "135534.474000", "135536.475000", "135538.475000", "135540.475000", "135542.475000", "135544.474000", "135546.474000", "135548.473000", "135550.474000", "135552.474000", "135554.475000", "135556.475000", "135558.475000", "135600.475000", "135602.474000", "135604.473000", "135606.474000", "135608.474000", "135610.475000", "135612.476000", "135614.475000", "135616.475000", "135618.475000", "135620.474000", "135622.474000", "135624.474000", "135626.474000", "135628.475000", "135630.475000", "135632.475000", "135634.475000", "135636.474000", "135638.474000", "135640.473000", "135642.474000", "135644.474000", "135646.475000", "135648.475000", "135650.475000", "135652.475000", "135654.474000", "135656.474000", "135658.474000", "135700.474000", "135702.474000", "135704.475000", "135706.475000", "135708.480000", "135710.475000", "135712.474000", "135714.474000", "135716.474000", "135718.474000", "135720.476000", "135722.475000", "135724.476000", "135726.041000"],
      "InstanceCreationTime": ["135209.482000", "135210.474000", "135210.478000", "135211.474000", "135211.478000", "135212.474000", "135212.478000", "135214.474000", "135216.473000", "135218.473000", "135220.474000", "135222.474000", "135224.475000", "135226.476000", "135228.475000", "135230.475000", "135232.474000", "135234.474000", "135236.474000", "135238.474000", "135240.475000", "135242.475000", "135244.475000", "135246.475000", "135248.474000", "135250.474000", "135252.474000", "135254.474000", "135256.474000", "135258.475000", "135300.475000", "135302.475000", "135304.475000", "135306.474000", "135308.474000", "135310.474000", "135312.474000", "135314.474000", "135316.475000", "135318.474000", "135320.475000", "135322.475000", "135324.474000", "135326.474000", "135328.474000", "135330.473000", "135332.474000", "135334.475000", "135336.475000", "135338.475000", "135340.475000", "135342.474000", "135344.474000", "135346.475000", "135348.474000", "135350.475000", "135352.475000", "135354.475000", "135356.475000", "135358.474000", "135400.474000", "135402.474000", "135404.474000", "135406.474000", "135408.475000", "135410.475000", "135412.475000", "135414.475000", "135416.474000", "135418.474000", "135420.474000", "135422.473000", "135424.473000", "135426.475000", "135428.475000", "135430.475000", "135432.474000", "135434.474000", "135436.474000", "135438.474000", "135440.474000", "135442.474000", "135444.475000", "135446.475000", "135448.475000", "135450.475000", "135452.474000", "135454.474000", "135456.474000", "135458.474000", "135500.475000", "135502.475000", "135504.474000", "135506.475000", "135508.474000", "135510.474000", "135512.474000", "135514.474000", "135516.474000", "135518.475000", "135520.475000", "135522.475000", "135524.475000", "135526.474000", "135528.474000", "135530.474000", "135532.474000", "135534.474000", "135536.475000", "135538.475000", "135540.475000", "135542.475000", "135544.474000", "135546.474000", "135548.473000", "135550.474000", "135552.474000", "135554.475000", "135556.475000", "135558.475000", "135600.475000", "135602.474000", "135604.473000", "135606.474000", "135608.474000", "135610.475000", "135612.476000", "135614.475000", "135616.475000", "135618.475000", "135620.474000", "135622.474000", "135624.474000", "135626.474000", "135628.475000", "135630.475000", "135632.475000", "135634.475000", "135636.474000", "135638.474000", "135640.473000", "135642.474000", "135644.474000", "135646.475000", "135648.475000", "135650.475000", "135652.475000", "135654.474000", "135656.474000", "135658.474000", "135700.474000", "135702.474000", "135704.475000", "135706.475000", "135708.480000", "135710.475000", "135712.474000", "135714.474000", "135716.474000", "135718.474000", "135720.476000", "135722.475000", "135724.476000", "135726.041000"],
      "InstanceNumber": [1, 2, 3, 4, 5, 6, 7, 8, 9, 10, 11, 12, 13, 14, 15, 16, 17, 18, 19, 20, 21, 22, 23, 24, 25, 26, 27, 28, 29, 30, 31, 32, 33, 34, 35, 36, 37, 38, 39, 40, 41, 42, 43, 44, 45, 46, 47, 48, 49, 50, 51, 52, 53, 54, 55, 56, 57, 58, 59, 60, 61, 62, 63, 64, 65, 66, 67, 68, 69, 70, 71, 72, 73, 74, 75, 76, 77, 78, 79, 80, 81, 82, 83, 84, 85, 86, 87, 88, 89, 90, 91, 92, 93, 94, 95, 96, 97, 98, 99, 100, 101, 102, 103, 104, 105, 106, 107, 108, 109, 110, 111, 112, 113, 114, 115, 116, 117, 118, 119, 120, 121, 122, 123, 124, 125, 126, 127, 128, 129, 130, 131, 132, 133, 134, 135, 136, 137, 138, 139, 140, 141, 142, 143, 144, 145, 146, 147, 148, 149, 150, 151, 152, 153, 154, 155, 156, 157, 158, 159, 160, 161, 162, 163, 164],
      "WindowCenter": [16512.0, 16471.0, 16425.0, 16418.0, 16421.0, 16420.0, 16425.0, 16436.0, 16429.0, 16422.0, 16417.0, 16433.0, 16424.0, 16433.0, 16423.0, 16419.0, 16412.0, 16419.0, 16415.0, 16412.0, 16412.0, 16421.0, 16424.0, 16432.0, 16432.0, 16413.0, 16431.0, 16442.0, 16438.0, 16436.0, 16437.0, 16425.0, 16433.0, 16431.0, 16424.0, 16426.0, 16433.0, 16415.0, 16414.0, 16414.0, 16420.0, 16429.0, 16437.0, 16420.0, 16415.0, 16453.0, 16441.0, 16434.0, 16433.0, 16433.0, 16432.0, 16437.0, 16461.0, 16434.0, 16433.0, 16420.0, 16413.0, 16419.0, 16413.0, 16425.0, 16413.0, 16412.0, 16433.0, 16434.0, 16394.0, 16396.0, 16402.0, 16420.0, 16397.0, 16427.0, 16433.0, 16427.0, 16430.0, 16428.0, 16415.0, 16415.0, 16413.0, 16418.0, 16415.0, 16425.0, 16442.0, 16458.0, 16441.0, 16441.0, 16437.0, 16444.0, 16427.0, 16430.0, 16447.0, 16433.0, 16421.0, 16413.0, 16413.0, 16415.0, 16438.0, 16423.0, 16386.0, 16431.0, 16437.0, 16420.0, 16423.0, 16439.0, 16429.0, 16419.0, 16441.0, 16444.0, 16458.0, 16456.0, 16426.0, 16432.0, 16437.0, 16432.0, 16432.0, 16444.0, 16423.0, 16410.0, 16394.0, 16410.0, 16424.0, 16437.0, 16434.0, 16435.0, 16422.0, 16440.0, 16437.0, 16421.0, 16436.0, 16428.0, 16431.0, 16415.0, 16424.0, 16430.0, 16427.0, 16428.0, 16430.0, 16448.0, 16432.0, 16455.0, 16442.0, 16433.0, 16414.0, 16408.0, 16449.0, 16476.0, 16503.0, 16509.0, 16483.0, 16461.0, 16464.0, 16474.0, 16499.0, 16506.0, 16514.0, 16492.0, 16492.0, 16482.0, 16496.0, 16481.0, 16477.0, 16492.0, 16479.0, 16497.0, 16480.0, 16468.0],
      "WindowWidth": [46416.0, 46208.0, 46172.0, 46193.0, 46220.0, 46246.0, 46250.0, 46244.0, 46252.0, 46261.0, 46283.0, 46244.0, 46248.0, 46217.0, 46181.0, 46166.0, 46161.0, 46140.0, 46149.0, 46187.0, 46214.0, 46220.0, 46208.0, 46215.0, 46242.0, 46254.0, 46253.0, 46222.0, 46220.0, 46220.0, 46207.0, 46210.0, 46203.0, 46214.0, 46196.0, 46172.0, 46163.0, 46163.0, 46149.0, 46162.0, 46181.0, 46173.0, 46179.0, 46219.0, 46241.0, 46205.0, 46250.0, 46309.0, 46256.0, 46215.0, 46254.0, 46259.0, 46212.0, 46137.0, 46058.0, 46047.0, 46028.0, 46045.0, 46094.0, 46169.0, 46238.0, 46170.0, 46174.0, 45937.0, 45853.0, 45841.0, 45861.0, 45888.0, 45989.0, 46081.0, 46189.0, 46184.0, 46147.0, 46106.0, 46069.0, 46095.0, 46117.0, 46110.0, 46174.0, 46287.0, 46340.0, 46326.0, 46301.0, 46235.0, 46203.0, 46183.0, 46185.0, 46174.0, 46148.0, 46110.0, 46061.0, 46027.0, 46054.0, 46109.0, 46180.0, 46140.0, 46058.0, 46276.0, 46216.0, 46177.0, 46180.0, 46167.0, 46146.0, 46164.0, 46220.0, 46224.0, 46196.0, 46167.0, 46117.0, 46083.0, 46060.0, 46097.0, 46161.0, 46185.0, 46154.0, 46073.0, 46074.0, 46101.0, 46075.0, 46071.0, 46081.0, 46082.0, 46072.0, 46088.0, 46112.0, 46166.0, 46151.0, 46105.0, 46107.0, 46148.0, 46193.0, 46197.0, 46182.0, 46274.0, 46316.0, 46305.0, 46292.0, 46141.0, 45980.0, 45895.0, 45894.0, 45969.0, 46244.0, 46262.0, 46283.0, 46106.0, 45926.0, 45895.0, 46001.0, 46130.0, 46267.0, 46275.0, 46199.0, 46131.0, 46132.0, 46177.0, 46175.0, 46163.0, 46135.0, 46106.0, 46110.0, 46149.0, 46163.0, 46155.0]
    },
    "slices": {}
  }
}