{
  "AcquisitionMatrixPE": 116,
  "AcquisitionNumber": 1,
  "AcquisitionTime": "14:55:46.742500",
  "BandwidthPerPixelPhaseEncode": 18.539,
  "BaseResolution": 116,
  "BodyPartExamined": "HEAD",
  "ConsistencyInfo": "N4_VD13D_LATEST_20130810",
  "ConversionSoftware": "dcm2niix",
  "ConversionSoftwareVersion": "v1.0.20190410  (JP2:OpenJPEG) (JP-LS:CharLS) GCC5.5.0",
  "DerivedVendorReportedEchoSpacing": 0.000930006,
  "DeviceSerialNumber": "66014",
  "DwellTime": 3e-06,
  "EchoTime": 0.03,
  "EchoTrainLength": 50,
  "EffectiveEchoSpacing": 0.000465003,
  "FlipAngle": 81,
  "ImageComments": "Unaliased_MB3_PE4",
  "ImageOrientationPatientDICOM": [0.999266, -0.031204, 0.0222029, 0.0296575, 0.997321, 0.0668646],
  "ImageType": [
    "ORIGINAL",
    "PRIMARY",
    "M",
    "MB",
    "ND",
    "MOSAIC"
],
  "ImagingFrequency": 123.261,
  "InPlanePhaseEncodingDirectionDICOM": "COL",
  "InstitutionAddress": "Yiheyuan_Road_5_Beijing_Haidian_CN_100871",
  "InstitutionName": "Peking_University",
  "InstitutionalDepartmentName": "Department",
  "MRAcquisitionType": "2D",
  "MagneticFieldStrength": 3,
  "Manufacturer": "Siemens",
  "ManufacturersModelName": "Prisma",
  "Modality": "MR",
  "MultibandAccelerationFactor": 3,
  "ParallelReductionFactorInPlane": 2,
  "PartialFourier": 0.875,
  "PatientPosition": "HFS",
  "PercentPhaseFOV": 100,
  "PhaseEncodingDirection": "j-",
  "PhaseEncodingSteps": 101,
  "PhaseResolution": 1,
  "PixelBandwidth": 1435,
  "ProcedureStepDescription": "Research_Projects_64CH",
  "ProtocolName": "mbep2d_bold_MB3_loca2",
  "PulseSequenceDetails": "%CustomerSeq%_cmrr_mbep2d_bold",
  "ReceiveCoilActiveElements": "HC1-6",
  "ReceiveCoilName": "HeadNeck_64",
  "ReconMatrixPE": 116,
  "RefLinesPE": 44,
  "RepetitionTime": 2,
  "SAR": 0.0634718,
  "ScanOptions": "PFP_FS",
  "ScanningSequence": "EP",
  "SequenceName": "epfid2d1_116",
  "SequenceVariant": "SK_SS",
  "SeriesDescription": "mbep2d_bold_MB3_loca2",
  "SeriesNumber": 10,
  "ShimSetting": [-3449, -2094, -1994, 419, -19, -265, 48, 23],
  "SliceThickness": 1.9,
  "SliceTiming": [0, 0.9075, 1.815, 0.7425, 1.65, 0.5775, 1.485, 0.4125, 1.32, 0.2475, 1.155, 0.0825, 0.99, 1.8975, 0.825, 1.7325, 0.66, 1.5675, 0.495, 1.4025, 0.33, 1.2375, 0.165, 1.0725, 0, 0.9075, 1.815, 0.7425, 1.65, 0.5775, 1.485, 0.4125, 1.32, 0.2475, 1.155, 0.0825, 0.99, 1.8975, 0.825, 1.7325, 0.66, 1.5675, 0.495, 1.4025, 0.33, 1.2375, 0.165, 1.0725, 0, 0.9075, 1.815, 0.7425, 1.65, 0.5775, 1.485, 0.4125, 1.32, 0.2475, 1.155, 0.0825, 0.99, 1.8975, 0.825, 1.7325, 0.66, 1.5675, 0.495, 1.4025, 0.33, 1.2375, 0.165, 1.0725],
  "SoftwareVersions": "syngo_MR_D13D",
  "SpacingBetweenSlices": 1.9,
  "StationName": "AWP66014",
  "TaskName": "localizer",
  "TotalReadoutTime": 0.0534753,
  "TxRefAmp": 231.705,
  "WipMemBlock": "b7861e5d-4229-4e0a-bae7-42e8bef9cf8c||Sequence: vd13d/master r/0735857; Nov 19 2014 09:21:40 by eja",
  "dcmmeta_affine": [
    [-1.895160436630249, 0.056247055530548096, 0.04603668674826622, 105.21621704101562],
    [0.059179920703172684, 1.891471266746521, 0.1256984919309616, -104.23115539550781],
    [0.042108893394470215, -0.12681223452091217, 1.8952783346176147, -61.17671203613281],
    [0.0, 0.0, 0.0, 1.0]
],
  "dcmmeta_reorient_transform": [
    [0.0, -1.0, 0.0, 115.0],
    [1.0, 0.0, 0.0, 0.0],
    [0.0, 0.0, 1.0, 0.0],
    [0.0, 0.0, 0.0, 1.0]
],
  "dcmmeta_shape": [116, 116, 72, 164],
  "dcmmeta_slice_dim": 2,
  "dcmmeta_version": 0.6,
  "global": {
    "const": {
      "AcquisitionMatrix": [116, 0, 0, 116],
      "AngioFlag": "N",
      "BitsAllocated": 16,
      "BitsStored": 16,
      "BodyPartExamined": "HEAD",
      "Columns": 1044,
      "EchoNumbers": 1,
      "EchoTime": 30.0,
      "EchoTrainLength": 50,
      "FlipAngle": 81.0,
      "HighBit": 15,
      "ImageOrientationPatient": [0.9992664036625, -0.0312039579441, 0.02220287188706, 0.02965753811837, 0.99732118746512, 0.06686463539067],
      "ImagePositionPatient": [-1017.1377018501, -963.47119983236, -154.13952465681],
      "ImageType": [
        "ORIGINAL",
        "PRIMARY",
        "M",
        "MB",
        "ND",
        "MOSAIC"
],
      "ImagedNucleus": "1H",
      "ImagingFrequency": 123.260576,
      "InPlanePhaseEncodingDirection": "COL",
      "LargestImagePixelValue": 65535,
      "MRAcquisitionType": "2D",
      "MagneticFieldStrength": 3.0,
      "Manufacturer": "SIEMENS",
      "ManufacturerModelName": "Prisma",
      "Modality": "MR",
      "NumberOfAverages": 1.0,
      "NumberOfPhaseEncodingSteps": 101,
      "PercentPhaseFieldOfView": 100.0,
      "PercentSampling": 100.0,
      "PerformedProcedureStepStartTime": "140457.397000",
      "PhotometricInterpretation": "MONOCHROME2",
      "PixelBandwidth": 1435.0,
      "PixelRepresentation": 0,
      "PixelSpacing": [1.8965517282486, 1.8965517282486],
      "ProtocolName": "mbep2d_bold_MB3_loca2",
      "RepetitionTime": 2000.0,
      "Rows": 1044,
      "SAR": 0.06347176584437,
      "SamplesPerPixel": 1,
      "ScanOptions": [
        "PFP",
        "FS"
],
      "ScanningSequence": "EP",
      "SequenceName": "epfid2d1_116",
      "SequenceVariant": [
        "SK",
        "SS"
],
      "SeriesDescription": "mbep2d_bold_MB3_loca2",
      "SeriesNumber": 10,
      "SeriesTime": "145600.955000",
      "SliceLocation": -65.370945003917,
      "SliceThickness": 1.8999999761581,
      "SmallestImagePixelValue": 0,
      "SoftwareVersions": "syngo MR D13D",
      "SpacingBetweenSlices": 1.8999999148123,
      "SpecificCharacterSet": "ISO_IR 100",
      "StudyID": "1",
      "StudyTime": "140457.322000",
      "TimeOfLastCalibration": ["123723.000000", "123723.000000"],
      "TransmitCoilName": "Body",
      "VariableFlipAngleFlag": "N",
      "WindowCenterWidthExplanation": "Algo1",
      "dBdt": 0.0},
    "slices": {}
  },
  "time": {
    "samples": {
      "AcquisitionNumber": [1, 2, 3, 4, 5, 6, 7, 8, 9, 10, 11, 12, 13, 14, 15, 16, 17, 18, 19, 20, 21, 22, 23, 24, 25, 26, 27, 28, 29, 30, 31, 32, 33, 34, 35, 36, 37, 38, 39, 40, 41, 42, 43, 44, 45, 46, 47, 48, 49, 50, 51, 52, 53, 54, 55, 56, 57, 58, 59, 60, 61, 62, 63, 64, 65, 66, 67, 68, 69, 70, 71, 72, 73, 74, 75, 76, 77, 78, 79, 80, 81, 82, 83, 84, 85, 86, 87, 88, 89, 90, 91, 92, 93, 94, 95, 96, 97, 98, 99, 100, 101, 102, 103, 104, 105, 106, 107, 108, 109, 110, 111, 112, 113, 114, 115, 116, 117, 118, 119, 120, 121, 122, 123, 124, 125, 126, 127, 128, 129, 130, 131, 132, 133, 134, 135, 136, 137, 138, 139, 140, 141, 142, 143, 144, 145, 146, 147, 148, 149, 150, 151, 152, 153, 154, 155, 156, 157, 158, 159, 160, 161, 162, 163, 164],
      "AcquisitionTime": ["145546.742500", "145548.742500", "145550.742500", "145552.742500", "145554.742500", "145556.742500", "145558.742500", "145600.742500", "145602.742500", "145604.742500", "145606.742500", "145608.742500", "145610.742500", "145612.742500", "145614.742500", "145616.742500", "145618.742500", "145620.742500", "145622.742500", "145624.742500", "145626.742500", "145628.742500", "145630.742500", "145632.742500", "145634.742500", "145636.742500", "145638.742500", "145640.742500", "145642.742500", "145644.742500", "145646.742500", "145648.742500", "145650.742500", "145652.742500", "145654.742500", "145656.742500", "145658.742500", "145700.742500", "145702.742500", "145704.742500", "145706.742500", "145708.742500", "145710.742500", "145712.742500", "145714.742500", "145716.742500", "145718.742500", "145720.742500", "145722.742500", "145724.742500", "145726.742500", "145728.742500", "145730.742500", "145732.742500", "145734.742500", "145736.742500", "145738.742500", "145740.742500", "145742.742500", "145744.742500", "145746.742500", "145748.742500", "145750.742500", "145752.742500", "145754.742500", "145756.742500", "145758.742500", "145800.742500", "145802.742500", "145804.742500", "145806.742500", "145808.742500", "145810.742500", "145812.742500", "145814.742500", "145816.742500", "145818.742500", "145820.742500", "145822.742500", "145824.742500", "145826.742500", "145828.742500", "145830.742500", "145832.742500", "145834.742500", "145836.742500", "145838.742500", "145840.742500", "145842.742500", "145844.742500", "145846.742500", "145848.742500", "145850.742500", "145852.742500", "145854.742500", "145856.742500", "145858.742500", "145900.742500", "145902.742500", "145904.742500", "145906.742500", "145908.742500", "145910.742500", "145912.742500", "145914.742500", "145916.742500", "145918.742500", "145920.742500", "145922.742500", "145924.742500", "145926.742500", "145928.742500", "145930.742500", "145932.742500", "145934.742500", "145936.742500", "145938.742500", "145940.742500", "145942.742500", "145944.742500", "145946.742500", "145948.742500", "145950.742500", "145952.742500", "145954.742500", "145956.742500", "145958.742500", "150000.742500", "150002.742500", "150004.742500", "150006.742500", "150008.742500", "150010.742500", "150012.745000", "150014.745000", "150016.745000", "150018.745000", "150020.745000", "150022.745000", "150024.745000", "150026.745000", "150028.745000", "150030.745000", "150032.745000", "150034.745000", "150036.745000", "150038.745000", "150040.745000", "150042.745000", "150044.745000", "150046.745000", "150048.745000", "150050.745000", "150052.745000", "150054.745000", "150056.745000", "150058.745000", "150100.745000", "150102.745000", "150104.745000", "150106.745000", "150108.745000", "150110.745000", "150112.745000"],
      "ContentTime": ["145600.961000", "145601.952000", "145601.957000", "145602.951000", "145602.955000", "145603.953000", "145604.952000", "145605.951000", "145607.953000", "145609.954000", "145611.954000", "145613.954000", "145615.954000", "145617.954000", "145619.953000", "145621.954000", "145623.953000", "145625.953000", "145627.955000", "145629.955000", "145631.952000", "145633.954000", "145635.954000", "145637.953000", "145639.953000", "145641.953000", "145643.954000", "145645.955000", "145647.955000", "145649.954000", "145651.954000", "145653.955000", "145655.953000", "145657.954000", "145659.953000", "145701.951000", "145703.954000", "145705.954000", "145707.954000", "145709.954000", "145711.954000", "145713.953000", "145715.953000", "145717.953000", "145719.954000", "145721.954000", "145723.955000", "145725.954000", "145727.954000", "145729.954000", "145731.953000", "145733.953000", "145735.953000", "145737.955000", "145739.955000", "145741.954000", "145743.954000", "145745.954000", "145747.954000", "145749.953000", "145751.953000", "145753.953000", "145755.955000", "145757.954000", "145759.954000", "145801.954000", "145803.954000", "145805.953000", "145807.953000", "145809.953000", "145811.953000", "145813.954000", "145815.954000", "145817.956000", "145819.957000", "145821.955000", "145823.954000", "145825.953000", "145827.953000", "145829.954000", "145831.954000", "145833.955000", "145835.955000", "145837.952000", "145839.954000", "145841.953000", "145843.953000", "145845.953000", "145847.955000", "145849.954000", "145851.955000", "145853.953000", "145855.954000", "145857.954000", "145859.953000", "145901.954000", "145903.953000", "145905.954000", "145907.954000", "145909.954000", "145911.954000", "145913.954000", "145915.953000", "145917.953000", "145919.953000", "145921.953000", "145923.954000", "145925.954000", "145927.954000", "145929.954000", "145931.954000", "145933.953000", "145935.954000", "145937.954000", "145939.955000", "145941.955000", "145943.955000", "145945.953000", "145947.955000", "145949.954000", "145951.953000", "145953.953000", "145955.953000", "145957.954000", "145959.954000", "150001.954000", "150003.954000", "150005.954000", "150007.953000", "150009.953000", "150011.953000", "150013.953000", "150015.954000", "150017.955000", "150019.954000", "150021.955000", "150023.954000", "150025.953000", "150027.952000", "150029.952000", "150031.952000", "150033.953000", "150035.953000", "150037.953000", "150039.953000", "150041.953000", "150043.952000", "150045.952000", "150047.952000", "150049.953000", "150051.953000", "150053.952000", "150055.953000", "150057.953000", "150059.952000", "150101.952000", "150103.952000", "150105.952000", "150107.953000", "150109.974000", "150111.953000", "150113.953000", "150115.953000", "150117.528000"],
      "InstanceCreationTime": ["145600.961000", "145601.952000", "145601.957000", "145602.951000", "145602.955000", "145603.953000", "145604.952000", "145605.951000", "145607.953000", "145609.954000", "145611.954000", "145613.954000", "145615.954000", "145617.954000", "145619.953000", "145621.954000", "145623.953000", "145625.953000", "145627.955000", "145629.955000", "145631.952000", "145633.954000", "145635.954000", "145637.953000", "145639.953000", "145641.953000", "145643.954000", "145645.955000", "145647.955000", "145649.954000", "145651.954000", "145653.955000", "145655.953000", "145657.954000", "145659.953000", "145701.951000", "145703.954000", "145705.954000", "145707.954000", "145709.954000", "145711.954000", "145713.953000", "145715.953000", "145717.953000", "145719.954000", "145721.954000", "145723.955000", "145725.954000", "145727.954000", "145729.954000", "145731.953000", "145733.953000", "145735.953000", "145737.955000", "145739.955000", "145741.954000", "145743.954000", "145745.954000", "145747.954000", "145749.953000", "145751.953000", "145753.953000", "145755.955000", "145757.954000", "145759.954000", "145801.954000", "145803.954000", "145805.953000", "145807.953000", "145809.953000", "145811.953000", "145813.954000", "145815.954000", "145817.956000", "145819.957000", "145821.955000", "145823.954000", "145825.953000", "145827.953000", "145829.954000", "145831.954000", "145833.955000", "145835.955000", "145837.952000", "145839.954000", "145841.953000", "145843.953000", "145845.953000", "145847.955000", "145849.954000", "145851.955000", "145853.953000", "145855.954000", "145857.954000", "145859.953000", "145901.954000", "145903.953000", "145905.954000", "145907.954000", "145909.954000", "145911.954000", "145913.954000", "145915.953000", "145917.953000", "145919.953000", "145921.953000", "145923.954000", "145925.954000", "145927.954000", "145929.954000", "145931.954000", "145933.953000", "145935.954000", "145937.954000", "145939.955000", "145941.955000", "145943.955000", "145945.953000", "145947.955000", "145949.954000", "145951.953000", "145953.953000", "145955.953000", "145957.954000", "145959.954000", "150001.954000", "150003.954000", "150005.954000", "150007.953000", "150009.953000", "150011.953000", "150013.953000", "150015.954000", "150017.955000", "150019.954000", "150021.955000", "150023.954000", "150025.953000", "150027.952000", "150029.952000", "150031.952000", "150033.953000", "150035.953000", "150037.953000", "150039.953000", "150041.953000", "150043.952000", "150045.952000", "150047.952000", "150049.953000", "150051.953000", "150053.952000", "150055.953000", "150057.953000", "150059.952000", "150101.952000", "150103.952000", "150105.952000", "150107.953000", "150109.974000", "150111.953000", "150113.953000", "150115.953000", "150117.528000"],
      "InstanceNumber": [1, 2, 3, 4, 5, 6, 7, 8, 9, 10, 11, 12, 13, 14, 15, 16, 17, 18, 19, 20, 21, 22, 23, 24, 25, 26, 27, 28, 29, 30, 31, 32, 33, 34, 35, 36, 37, 38, 39, 40, 41, 42, 43, 44, 45, 46, 47, 48, 49, 50, 51, 52, 53, 54, 55, 56, 57, 58, 59, 60, 61, 62, 63, 64, 65, 66, 67, 68, 69, 70, 71, 72, 73, 74, 75, 76, 77, 78, 79, 80, 81, 82, 83, 84, 85, 86, 87, 88, 89, 90, 91, 92, 93, 94, 95, 96, 97, 98, 99, 100, 101, 102, 103, 104, 105, 106, 107, 108, 109, 110, 111, 112, 113, 114, 115, 116, 117, 118, 119, 120, 121, 122, 123, 124, 125, 126, 127, 128, 129, 130, 131, 132, 133, 134, 135, 136, 137, 138, 139, 140, 141, 142, 143, 144, 145, 146, 147, 148, 149, 150, 151, 152, 153, 154, 155, 156, 157, 158, 159, 160, 161, 162, 163, 164],
      "WindowCenter": [18293.0, 18242.0, 18231.0, 18211.0, 18215.0, 18197.0, 18200.0, 18194.0, 18193.0, 18195.0, 18206.0, 18207.0, 18216.0, 18209.0, 18195.0, 18205.0, 18222.0, 18209.0, 18211.0, 18196.0, 18200.0, 18204.0, 18204.0, 18213.0, 18209.0, 18209.0, 18208.0, 18218.0, 18212.0, 18198.0, 18202.0, 18197.0, 18206.0, 18202.0, 18208.0, 18173.0, 18175.0, 18179.0, 18188.0, 18175.0, 18199.0, 18218.0, 18204.0, 18199.0, 18193.0, 18206.0, 18200.0, 18185.0, 18187.0, 18200.0, 18215.0, 18219.0, 18210.0, 18216.0, 18213.0, 18208.0, 18209.0, 18218.0, 18209.0, 18206.0, 18207.0, 18209.0, 18211.0, 18200.0, 18211.0, 18200.0, 18202.0, 18203.0, 18209.0, 18225.0, 18232.0, 18216.0, 18186.0, 18161.0, 18208.0, 18215.0, 18220.0, 18210.0, 18210.0, 18192.0, 18195.0, 18215.0, 18203.0, 18203.0, 18210.0, 18213.0, 18218.0, 18209.0, 18203.0, 18206.0, 18218.0, 18229.0, 18229.0, 18216.0, 18217.0, 18209.0, 18232.0, 18226.0, 18228.0, 18222.0, 18208.0, 18208.0, 18220.0, 18210.0, 18210.0, 18215.0, 18233.0, 18220.0, 18207.0, 18200.0, 18189.0, 18208.0, 18206.0, 18211.0, 18236.0, 18239.0, 18218.0, 18188.0, 18203.0, 18210.0, 18220.0, 18231.0, 18237.0, 18239.0, 18250.0, 18227.0, 18201.0, 18197.0, 18197.0, 18210.0, 18228.0, 18222.0, 18227.0, 18230.0, 18213.0, 18204.0, 18212.0, 18202.0, 18202.0, 18137.0, 18169.0, 18142.0, 18135.0, 18132.0, 18108.0, 18100.0, 18103.0, 18128.0, 18137.0, 18129.0, 18138.0, 18152.0, 18148.0, 18145.0, 18130.0, 18122.0, 18122.0, 18136.0, 18135.0, 18117.0, 18133.0, 18127.0, 18117.0, 18116.0],
      "WindowWidth": [46286.0, 46204.0, 46156.0, 46116.0, 46094.0, 46067.0, 46070.0, 46053.0, 46025.0, 46053.0, 46064.0, 46090.0, 46109.0, 46091.0, 46067.0, 46088.0, 46088.0, 46077.0, 46054.0, 46042.0, 46058.0, 46064.0, 46077.0, 46095.0, 46091.0, 46094.0, 46131.0, 46140.0, 46135.0, 46097.0, 46074.0, 46058.0, 46078.0, 46076.0, 46038.0, 46007.0, 45972.0, 45989.0, 46034.0, 46063.0, 46081.0, 46100.0, 46099.0, 46086.0, 46079.0, 46089.0, 46071.0, 46034.0, 46035.0, 46046.0, 46081.0, 46086.0, 46104.0, 46057.0, 46068.0, 46103.0, 46105.0, 46086.0, 46080.0, 46088.0, 46101.0, 46079.0, 46068.0, 46074.0, 46081.0, 46059.0, 46048.0, 46063.0, 46093.0, 46130.0, 46121.0, 46067.0, 45993.0, 46000.0, 46101.0, 46094.0, 46125.0, 46129.0, 46076.0, 46038.0, 46041.0, 46058.0, 46087.0, 46086.0, 46080.0, 46094.0, 46070.0, 46053.0, 46033.0, 46049.0, 46110.0, 46168.0, 46141.0, 46120.0, 46109.0, 46130.0, 46136.0, 46170.0, 46158.0, 46114.0, 46075.0, 46051.0, 46072.0, 46067.0, 46079.0, 46107.0, 46094.0, 46082.0, 46046.0, 46039.0, 46032.0, 46074.0, 46063.0, 46103.0, 46163.0, 46165.0, 46096.0, 46007.0, 46009.0, 46078.0, 46138.0, 46158.0, 46163.0, 46178.0, 46148.0, 46128.0, 46068.0, 46027.0, 46064.0, 46091.0, 46154.0, 46166.0, 46156.0, 46145.0, 46130.0, 46086.0, 46053.0, 46046.0, 46070.0, 45833.0, 45957.0, 45919.0, 45873.0, 45844.0, 45811.0, 45777.0, 45796.0, 45857.0, 45877.0, 45886.0, 45894.0, 45928.0, 45953.0, 45922.0, 45870.0, 45852.0, 45879.0, 45901.0, 45886.0, 45896.0, 45879.0, 45822.0, 45805.0, 45829.0]
    },
    "slices": {}
  }
}