{
  "AcquisitionMatrixPE": 116,
  "AcquisitionNumber": 1,
  "AcquisitionTime": "09:54:54.780000",
  "BandwidthPerPixelPhaseEncode": 18.539,
  "BaseResolution": 116,
  "BodyPartExamined": "HEAD",
  "ConsistencyInfo": "N4_VD13D_LATEST_20130810",
  "ConversionSoftware": "dcm2niix",
  "ConversionSoftwareVersion": "v1.0.20190410  (JP2:OpenJPEG) (JP-LS:CharLS) GCC5.5.0",
  "DerivedVendorReportedEchoSpacing": 0.000930006,
  "DeviceSerialNumber": "66014",
  "DwellTime": 3e-06,
  "EchoTime": 0.03,
  "EchoTrainLength": 50,
  "EffectiveEchoSpacing": 0.000465003,
  "FlipAngle": 81,
  "ImageComments": "Unaliased_MB3_PE4",
  "ImageOrientationPatientDICOM": [0.999074, 0.0411388, 0.0125953, -0.0401269, 0.996587, -0.0721379],
  "ImageType": [
    "ORIGINAL",
    "PRIMARY",
    "M",
    "MB",
    "ND",
    "MOSAIC"
],
  "ImagingFrequency": 123.261,
  "InPlanePhaseEncodingDirectionDICOM": "COL",
  "InstitutionAddress": "Yiheyuan_Road_5_Beijing_Haidian_CN_100871",
  "InstitutionName": "Peking_University",
  "InstitutionalDepartmentName": "Department",
  "MRAcquisitionType": "2D",
  "MagneticFieldStrength": 3,
  "Manufacturer": "Siemens",
  "ManufacturersModelName": "Prisma",
  "Modality": "MR",
  "MultibandAccelerationFactor": 3,
  "ParallelReductionFactorInPlane": 2,
  "PartialFourier": 0.875,
  "PatientPosition": "HFS",
  "PercentPhaseFOV": 100,
  "PhaseEncodingDirection": "j-",
  "PhaseEncodingSteps": 101,
  "PhaseResolution": 1,
  "PixelBandwidth": 1435,
  "ProcedureStepDescription": "Research_Projects_64CH",
  "ProtocolName": "mbep2d_bold_MB3_loca3",
  "PulseSequenceDetails": "%CustomerSeq%_cmrr_mbep2d_bold",
  "ReceiveCoilActiveElements": "HC1-7",
  "ReceiveCoilName": "HeadNeck_64",
  "ReconMatrixPE": 116,
  "RefLinesPE": 44,
  "RepetitionTime": 2,
  "SAR": 0.0536923,
  "ScanOptions": "PFP_FS",
  "ScanningSequence": "EP",
  "SequenceName": "epfid2d1_116",
  "SequenceVariant": "SK_SS",
  "SeriesDescription": "mbep2d_bold_MB3_loca3",
  "SeriesNumber": 11,
  "ShimSetting": [-3448, -2160, -1961, 226, -13, -415, -33, 43],
  "SliceThickness": 1.9,
  "SliceTiming": [0, 0.9075, 1.815, 0.7425, 1.65, 0.5775, 1.485, 0.4125, 1.32, 0.2475, 1.155, 0.0825, 0.99, 1.8975, 0.825, 1.7325, 0.66, 1.5675, 0.495, 1.4025, 0.33, 1.2375, 0.165, 1.0725, 0, 0.9075, 1.815, 0.7425, 1.65, 0.5775, 1.485, 0.4125, 1.32, 0.2475, 1.155, 0.0825, 0.99, 1.8975, 0.825, 1.7325, 0.66, 1.5675, 0.495, 1.4025, 0.33, 1.2375, 0.165, 1.0725, 0, 0.9075, 1.815, 0.7425, 1.65, 0.5775, 1.485, 0.4125, 1.32, 0.2475, 1.155, 0.0825, 0.99, 1.8975, 0.825, 1.7325, 0.66, 1.5675, 0.495, 1.4025, 0.33, 1.2375, 0.165, 1.0725],
  "SoftwareVersions": "syngo_MR_D13D",
  "SpacingBetweenSlices": 1.9,
  "StationName": "AWP66014",
  "TaskName": "localizer",
  "TotalReadoutTime": 0.0534753,
  "TxRefAmp": 215.167,
  "WipMemBlock": "1a73a75c-79a6-49b8-aaae-73ef464a0036||Sequence: vd13d/master r/0735857; Nov 19 2014 09:21:40 by eja",
  "dcmmeta_affine": [
    [-1.8947956562042236, -0.0761028304696083, 0.02948802150785923, 112.7520980834961],
    [-0.07802184671163559, 1.890079140663147, -0.13597480952739716, -90.75265502929688],
    [0.023887697607278824, 0.13681325316429138, 1.894898772239685, -68.27082061767578],
    [0.0, 0.0, 0.0, 1.0]
],
  "dcmmeta_reorient_transform": [
    [0.0, -1.0, 0.0, 115.0],
    [1.0, 0.0, 0.0, 0.0],
    [0.0, 0.0, 1.0, 0.0],
    [0.0, 0.0, 0.0, 1.0]
],
  "dcmmeta_shape": [116, 116, 72, 164],
  "dcmmeta_slice_dim": 2,
  "dcmmeta_version": 0.6,
  "global": {
    "const": {
      "AcquisitionMatrix": [116, 0, 0, 116],
      "AngioFlag": "N",
      "BitsAllocated": 16,
      "BitsStored": 16,
      "BodyPartExamined": "HEAD",
      "Columns": 1044,
      "EchoNumbers": 1,
      "EchoTime": 30.0,
      "EchoTrainLength": 50,
      "FlipAngle": 81.0,
      "HighBit": 15,
      "ImageOrientationPatient": [0.99907405007659, 0.04113879062186, 0.01259533126763, -0.0401269450074, 0.99658715219761, -0.0721378982161],
      "ImagePositionPatient": [-947.87372921109, -1039.8052724558, -0.1398375056146],
      "ImageType": [
        "ORIGINAL",
        "PRIMARY",
        "M",
        "MB",
        "ND",
        "MOSAIC"
],
      "ImagedNucleus": "1H",
      "ImagingFrequency": 123.260553,
      "InPlanePhaseEncodingDirection": "COL",
      "LargestImagePixelValue": 65535,
      "MRAcquisitionType": "2D",
      "MagneticFieldStrength": 3.0,
      "Manufacturer": "SIEMENS",
      "ManufacturerModelName": "Prisma",
      "Modality": "MR",
      "NumberOfAverages": 1.0,
      "NumberOfPhaseEncodingSteps": 101,
      "PercentPhaseFieldOfView": 100.0,
      "PercentSampling": 100.0,
      "PerformedProcedureStepStartTime": "085820.558000",
      "PhotometricInterpretation": "MONOCHROME2",
      "PixelBandwidth": 1435.0,
      "PixelRepresentation": 0,
      "PixelSpacing": [1.8965517282486, 1.8965517282486],
      "ProtocolName": "mbep2d_bold_MB3_loca3",
      "RepetitionTime": 2000.0,
      "Rows": 1044,
      "SAR": 0.05369228311742,
      "SamplesPerPixel": 1,
      "ScanOptions": [
        "PFP",
        "FS"
],
      "ScanningSequence": "EP",
      "SequenceName": "epfid2d1_116",
      "SequenceVariant": [
        "SK",
        "SS"
],
      "SeriesDescription": "mbep2d_bold_MB3_loca3",
      "SeriesNumber": 11,
      "SeriesTime": "095509.346000",
      "SliceLocation": -59.842832915698,
      "SliceThickness": 1.8999999761581,
      "SmallestImagePixelValue": 0,
      "SoftwareVersions": "syngo MR D13D",
      "SpacingBetweenSlices": 1.9000000453816,
      "SpecificCharacterSet": "ISO_IR 100",
      "StudyID": "1",
      "StudyTime": "085820.504000",
      "TimeOfLastCalibration": ["123723.000000", "123723.000000"],
      "TransmitCoilName": "Body",
      "VariableFlipAngleFlag": "N",
      "WindowCenterWidthExplanation": "Algo1",
      "dBdt": 0.0},
    "slices": {}
  },
  "time": {
    "samples": {
      "AcquisitionNumber": [1, 2, 3, 4, 5, 6, 7, 8, 9, 10, 11, 12, 13, 14, 15, 16, 17, 18, 19, 20, 21, 22, 23, 24, 25, 26, 27, 28, 29, 30, 31, 32, 33, 34, 35, 36, 37, 38, 39, 40, 41, 42, 43, 44, 45, 46, 47, 48, 49, 50, 51, 52, 53, 54, 55, 56, 57, 58, 59, 60, 61, 62, 63, 64, 65, 66, 67, 68, 69, 70, 71, 72, 73, 74, 75, 76, 77, 78, 79, 80, 81, 82, 83, 84, 85, 86, 87, 88, 89, 90, 91, 92, 93, 94, 95, 96, 97, 98, 99, 100, 101, 102, 103, 104, 105, 106, 107, 108, 109, 110, 111, 112, 113, 114, 115, 116, 117, 118, 119, 120, 121, 122, 123, 124, 125, 126, 127, 128, 129, 130, 131, 132, 133, 134, 135, 136, 137, 138, 139, 140, 141, 142, 143, 144, 145, 146, 147, 148, 149, 150, 151, 152, 153, 154, 155, 156, 157, 158, 159, 160, 161, 162, 163, 164],
      "AcquisitionTime": ["095454.780000", "095456.780000", "095458.780000", "095500.780000", "095502.780000", "095504.780000", "095506.780000", "095508.780000", "095510.780000", "095512.780000", "095514.780000", "095516.780000", "095518.780000", "095520.780000", "095522.780000", "095524.780000", "095526.780000", "095528.780000", "095530.780000", "095532.780000", "095534.780000", "095536.780000", "095538.780000", "095540.780000", "095542.780000", "095544.780000", "095546.780000", "095548.780000", "095550.780000", "095552.780000", "095554.780000", "095556.780000", "095558.780000", "095600.780000", "095602.780000", "095604.780000", "095606.780000", "095608.780000", "095610.780000", "095612.780000", "095614.780000", "095616.780000", "095618.780000", "095620.780000", "095622.780000", "095624.780000", "095626.780000", "095628.780000", "095630.780000", "095632.780000", "095634.780000", "095636.780000", "095638.780000", "095640.780000", "095642.780000", "095644.780000", "095646.780000", "095648.780000", "095650.780000", "095652.780000", "095654.780000", "095656.780000", "095658.780000", "095700.780000", "095702.780000", "095704.780000", "095706.780000", "095708.780000", "095710.780000", "095712.780000", "095714.780000", "095716.780000", "095718.780000", "095720.780000", "095722.780000", "095724.782500", "095726.782500", "095728.782500", "095730.782500", "095732.782500", "095734.782500", "095736.782500", "095738.782500", "095740.782500", "095742.782500", "095744.782500", "095746.782500", "095748.782500", "095750.782500", "095752.782500", "095754.782500", "095756.782500", "095758.782500", "095800.782500", "095802.782500", "095804.782500", "095806.782500", "095808.782500", "095810.782500", "095812.782500", "095814.782500", "095816.782500", "095818.782500", "095820.782500", "095822.782500", "095824.782500", "095826.782500", "095828.782500", "095830.782500", "095832.782500", "095834.782500", "095836.782500", "095838.782500", "095840.782500", "095842.782500", "095844.782500", "095846.782500", "095848.782500", "095850.782500", "095852.782500", "095854.782500", "095856.782500", "095858.782500", "095900.782500", "095902.782500", "095904.782500", "095906.782500", "095908.782500", "095910.782500", "095912.782500", "095914.782500", "095916.782500", "095918.782500", "095920.782500", "095922.782500", "095924.782500", "095926.782500", "095928.782500", "095930.782500", "095932.782500", "095934.782500", "095936.782500", "095938.782500", "095940.782500", "095942.782500", "095944.782500", "095946.782500", "095948.782500", "095950.782500", "095952.782500", "095954.782500", "095956.782500", "095958.782500", "100000.782500", "100002.782500", "100004.782500", "100006.782500", "100008.782500", "100010.782500", "100012.782500", "100014.782500", "100016.782500", "100018.782500", "100020.782500"],
      "ContentTime": ["095509.352000", "095510.345000", "095511.345000", "095511.350000", "095512.344000", "095513.344000", "095513.348000", "095514.344000", "095515.345000", "095516.345000", "095517.344000", "095519.344000", "095521.344000", "095523.345000", "095525.345000", "095527.346000", "095529.345000", "095531.345000", "095533.345000", "095535.345000", "095537.344000", "095539.344000", "095541.346000", "095543.345000", "095545.345000", "095547.345000", "095549.345000", "095551.346000", "095553.345000", "095555.345000", "095557.345000", "095559.345000", "095601.346000", "095603.345000", "095605.345000", "095607.345000", "095609.345000", "095611.344000", "095613.344000", "095615.345000", "095617.345000", "095619.345000", "095621.345000", "095623.345000", "095625.344000", "095627.346000", "095629.344000", "095631.344000", "095633.345000", "095635.345000", "095637.345000", "095639.345000", "095641.345000", "095643.345000", "095645.343000", "095647.344000", "095649.342000", "095651.345000", "095653.345000", "095655.345000", "095657.345000", "095659.345000", "095701.345000", "095703.345000", "095705.344000", "095707.345000", "095709.345000", "095711.346000", "095713.345000", "095715.346000", "095717.345000", "095719.345000", "095721.344000", "095723.344000", "095725.345000", "095727.345000", "095729.345000", "095731.345000", "095733.346000", "095735.346000", "095737.345000", "095739.345000", "095741.344000", "095743.346000", "095745.345000", "095747.346000", "095749.345000", "095751.346000", "095753.345000", "095755.345000", "095757.344000", "095759.344000", "095801.345000", "095803.345000", "095805.345000", "095807.345000", "095809.345000", "095811.345000", "095813.345000", "095815.344000", "095817.345000", "095819.346000", "095821.345000", "095823.345000", "095825.345000", "095827.345000", "095829.345000", "095831.344000", "095833.344000", "095835.345000", "095837.345000", "095839.344000", "095841.345000", "095843.344000", "095845.345000", "095847.344000", "095849.343000", "095851.343000", "095853.344000", "095855.344000", "095857.344000", "095859.344000", "095901.344000", "095903.344000", "095905.344000", "095907.343000", "095909.343000", "095911.344000", "095913.345000", "095915.344000", "095917.345000", "095919.344000", "095921.345000", "095923.345000", "095925.344000", "095927.345000", "095929.345000", "095931.343000", "095933.345000", "095935.345000", "095937.345000", "095939.345000", "095941.344000", "095943.354000", "095945.346000", "095947.346000", "095949.346000", "095951.345000", "095953.345000", "095955.345000", "095957.346000", "095959.344000", "100001.344000", "100003.345000", "100005.345000", "100007.345000", "100009.345000", "100011.345000", "100013.345000", "100015.345000", "100017.344000", "100019.344000", "100021.346000", "100022.939000"],
      "InstanceCreationTime": ["095509.352000", "095510.345000", "095511.345000", "095511.350000", "095512.344000", "095513.344000", "095513.348000", "095514.344000", "095515.345000", "095516.345000", "095517.344000", "095519.344000", "095521.344000", "095523.345000", "095525.345000", "095527.346000", "095529.345000", "095531.345000", "095533.345000", "095535.345000", "095537.344000", "095539.344000", "095541.346000", "095543.345000", "095545.345000", "095547.345000", "095549.345000", "095551.346000", "095553.345000", "095555.345000", "095557.345000", "095559.345000", "095601.346000", "095603.345000", "095605.345000", "095607.345000", "095609.345000", "095611.344000", "095613.344000", "095615.345000", "095617.345000", "095619.345000", "095621.345000", "095623.345000", "095625.344000", "095627.346000", "095629.344000", "095631.344000", "095633.345000", "095635.345000", "095637.345000", "095639.345000", "095641.345000", "095643.345000", "095645.343000", "095647.344000", "095649.342000", "095651.345000", "095653.345000", "095655.345000", "095657.345000", "095659.345000", "095701.345000", "095703.345000", "095705.344000", "095707.345000", "095709.345000", "095711.346000", "095713.345000", "095715.346000", "095717.345000", "095719.345000", "095721.344000", "095723.344000", "095725.345000", "095727.345000", "095729.345000", "095731.345000", "095733.346000", "095735.346000", "095737.345000", "095739.345000", "095741.344000", "095743.346000", "095745.345000", "095747.346000", "095749.345000", "095751.346000", "095753.345000", "095755.345000", "095757.344000", "095759.344000", "095801.345000", "095803.345000", "095805.345000", "095807.345000", "095809.345000", "095811.345000", "095813.345000", "095815.344000", "095817.345000", "095819.346000", "095821.345000", "095823.345000", "095825.345000", "095827.345000", "095829.345000", "095831.344000", "095833.344000", "095835.345000", "095837.345000", "095839.344000", "095841.345000", "095843.344000", "095845.345000", "095847.344000", "095849.343000", "095851.343000", "095853.344000", "095855.344000", "095857.344000", "095859.344000", "095901.344000", "095903.344000", "095905.344000", "095907.343000", "095909.343000", "095911.344000", "095913.345000", "095915.344000", "095917.345000", "095919.344000", "095921.345000", "095923.345000", "095925.344000", "095927.345000", "095929.345000", "095931.343000", "095933.345000", "095935.345000", "095937.345000", "095939.345000", "095941.344000", "095943.354000", "095945.346000", "095947.346000", "095949.346000", "095951.345000", "095953.345000", "095955.345000", "095957.346000", "095959.344000", "100001.344000", "100003.345000", "100005.345000", "100007.345000", "100009.345000", "100011.345000", "100013.345000", "100015.345000", "100017.344000", "100019.344000", "100021.346000", "100022.939000"],
      "InstanceNumber": [1, 2, 3, 4, 5, 6, 7, 8, 9, 10, 11, 12, 13, 14, 15, 16, 17, 18, 19, 20, 21, 22, 23, 24, 25, 26, 27, 28, 29, 30, 31, 32, 33, 34, 35, 36, 37, 38, 39, 40, 41, 42, 43, 44, 45, 46, 47, 48, 49, 50, 51, 52, 53, 54, 55, 56, 57, 58, 59, 60, 61, 62, 63, 64, 65, 66, 67, 68, 69, 70, 71, 72, 73, 74, 75, 76, 77, 78, 79, 80, 81, 82, 83, 84, 85, 86, 87, 88, 89, 90, 91, 92, 93, 94, 95, 96, 97, 98, 99, 100, 101, 102, 103, 104, 105, 106, 107, 108, 109, 110, 111, 112, 113, 114, 115, 116, 117, 118, 119, 120, 121, 122, 123, 124, 125, 126, 127, 128, 129, 130, 131, 132, 133, 134, 135, 136, 137, 138, 139, 140, 141, 142, 143, 144, 145, 146, 147, 148, 149, 150, 151, 152, 153, 154, 155, 156, 157, 158, 159, 160, 161, 162, 163, 164],
      "WindowCenter": [15539.0, 15535.0, 15531.0, 15531.0, 15530.0, 15533.0, 15534.0, 15522.0, 15527.0, 15516.0, 15525.0, 15529.0, 15531.0, 15540.0, 15524.0, 15523.0, 15524.0, 15520.0, 15517.0, 15511.0, 15516.0, 15524.0, 15526.0, 15534.0, 15539.0, 15539.0, 15541.0, 15518.0, 15523.0, 15518.0, 15530.0, 15535.0, 15535.0, 15537.0, 15521.0, 15522.0, 15519.0, 15513.0, 15512.0, 15526.0, 15529.0, 15534.0, 15536.0, 15544.0, 15542.0, 15531.0, 15520.0, 15527.0, 15525.0, 15536.0, 15527.0, 15535.0, 15528.0, 15527.0, 15514.0, 15521.0, 15510.0, 15517.0, 15517.0, 15521.0, 15529.0, 15527.0, 15521.0, 15517.0, 15511.0, 15522.0, 15515.0, 15527.0, 15529.0, 15528.0, 15523.0, 15518.0, 15521.0, 15520.0, 15525.0, 15526.0, 15526.0, 15536.0, 15532.0, 15533.0, 15524.0, 15527.0, 15530.0, 15541.0, 15530.0, 15527.0, 15530.0, 15544.0, 15540.0, 15527.0, 15521.0, 15517.0, 15512.0, 15523.0, 15532.0, 15529.0, 15522.0, 15529.0, 15534.0, 15531.0, 15530.0, 15526.0, 15524.0, 15526.0, 15539.0, 15534.0, 15527.0, 15525.0, 15522.0, 15519.0, 15516.0, 15521.0, 15530.0, 15542.0, 15528.0, 15531.0, 15538.0, 15549.0, 15541.0, 15528.0, 15532.0, 15540.0, 15539.0, 15533.0, 15527.0, 15519.0, 15529.0, 15517.0, 15522.0, 15525.0, 15523.0, 15531.0, 15537.0, 15535.0, 15536.0, 15529.0, 15529.0, 15528.0, 15518.0, 15522.0, 15520.0, 15523.0, 15529.0, 15541.0, 15544.0, 15523.0, 15521.0, 15532.0, 15531.0, 15536.0, 15527.0, 15534.0, 15530.0, 15521.0, 15536.0, 15533.0, 15534.0, 15538.0, 15550.0, 15545.0, 15540.0, 15530.0, 15524.0, 15516.0],
      "WindowWidth": [43013.0, 42993.0, 42933.0, 42907.0, 42891.0, 42937.0, 42938.0, 42924.0, 42873.0, 42847.0, 42871.0, 42947.0, 42889.0, 42887.0, 42869.0, 42826.0, 42801.0, 42796.0, 42780.0, 42787.0, 42850.0, 42887.0, 42918.0, 42969.0, 42987.0, 42915.0, 42831.0, 42795.0, 42801.0, 42839.0, 42879.0, 42941.0, 42925.0, 42857.0, 42853.0, 42856.0, 42866.0, 42845.0, 42830.0, 42846.0, 42878.0, 42941.0, 42956.0, 42938.0, 42892.0, 42866.0, 42882.0, 42888.0, 42914.0, 42927.0, 42918.0, 42912.0, 42920.0, 42932.0, 42931.0, 42894.0, 42855.0, 42864.0, 42922.0, 42984.0, 42977.0, 42945.0, 42853.0, 42835.0, 42860.0, 42898.0, 42917.0, 42916.0, 42892.0, 42890.0, 42856.0, 42835.0, 42866.0, 42880.0, 42872.0, 42930.0, 42917.0, 42983.0, 43021.0, 42966.0, 42913.0, 42902.0, 42933.0, 42917.0, 42905.0, 42889.0, 42948.0, 42976.0, 42985.0, 42899.0, 42833.0, 42803.0, 42871.0, 42955.0, 42949.0, 42917.0, 42911.0, 42946.0, 42951.0, 42920.0, 42890.0, 42915.0, 42942.0, 42941.0, 42886.0, 42910.0, 42946.0, 42955.0, 42908.0, 42877.0, 42888.0, 42952.0, 42974.0, 42918.0, 42931.0, 42978.0, 42999.0, 42984.0, 42904.0, 42889.0, 42951.0, 43002.0, 42956.0, 42908.0, 42914.0, 42890.0, 42873.0, 42848.0, 42868.0, 42928.0, 42926.0, 42977.0, 42970.0, 42968.0, 42954.0, 42960.0, 42903.0, 42832.0, 42821.0, 42797.0, 42781.0, 42827.0, 42919.0, 42975.0, 42976.0, 42924.0, 42908.0, 42935.0, 42935.0, 42939.0, 42930.0, 42923.0, 42918.0, 42939.0, 42912.0, 42893.0, 42924.0, 42984.0, 42982.0, 42992.0, 42971.0, 42931.0, 42882.0, 42831.0]
    },
    "slices": {}
  }
}