{
  "AcquisitionMatrixPE": 116,
  "AcquisitionNumber": 1,
  "AcquisitionTime": "18:06:32.565000",
  "BandwidthPerPixelPhaseEncode": 18.539,
  "BaseResolution": 116,
  "BodyPartExamined": "HEAD",
  "ConsistencyInfo": "N4_VD13D_LATEST_20130810",
  "ConversionSoftware": "dcm2niix",
  "ConversionSoftwareVersion": "v1.0.20190410  (JP2:OpenJPEG) (JP-LS:CharLS) GCC5.5.0",
  "DerivedVendorReportedEchoSpacing": 0.000930006,
  "DeviceSerialNumber": "66014",
  "DwellTime": 3e-06,
  "EchoTime": 0.03,
  "EchoTrainLength": 50,
  "EffectiveEchoSpacing": 0.000465003,
  "FlipAngle": 81,
  "ImageComments": "Unaliased_MB3_PE4",
  "ImageOrientationPatientDICOM": [0.999612, -0.024001, 0.0141511, 0.02443, 0.999222, -0.0309624],
  "ImageType": [
    "ORIGINAL",
    "PRIMARY",
    "M",
    "MB",
    "ND",
    "MOSAIC"
],
  "ImagingFrequency": 123.261,
  "InPlanePhaseEncodingDirectionDICOM": "COL",
  "InstitutionAddress": "Yiheyuan_Road_5_Beijing_Haidian_CN_100871",
  "InstitutionName": "Peking_Univeristy",
  "InstitutionalDepartmentName": "Department",
  "MRAcquisitionType": "2D",
  "MagneticFieldStrength": 3,
  "Manufacturer": "Siemens",
  "ManufacturersModelName": "Prisma",
  "Modality": "MR",
  "MultibandAccelerationFactor": 3,
  "ParallelReductionFactorInPlane": 2,
  "PartialFourier": 0.875,
  "PatientPosition": "HFS",
  "PercentPhaseFOV": 100,
  "PhaseEncodingDirection": "j-",
  "PhaseEncodingSteps": 101,
  "PhaseResolution": 1,
  "PixelBandwidth": 1435,
  "ProcedureStepDescription": "Research_Projects_64CH",
  "ProtocolName": "mbep2d_bold_MB3_loca1",
  "PulseSequenceDetails": "%CustomerSeq%_cmrr_mbep2d_bold",
  "ReceiveCoilActiveElements": "HC1-6",
  "ReceiveCoilName": "HeadNeck_64",
  "ReconMatrixPE": 116,
  "RefLinesPE": 44,
  "RepetitionTime": 2,
  "SAR": 0.0510233,
  "ScanOptions": "PFP_FS",
  "ScanningSequence": "EP",
  "SequenceName": "epfid2d1_116",
  "SequenceVariant": "SK_SS",
  "SeriesDescription": "mbep2d_bold_MB3_loca1",
  "SeriesNumber": 9,
  "ShimSetting": [-3447, -2105, -1965, 411, -8, -196, 4, -11],
  "SliceThickness": 1.9,
  "SliceTiming": [0, 0.9075, 1.815, 0.7425, 1.65, 0.5775, 1.485, 0.4125, 1.32, 0.2475, 1.155, 0.0825, 0.99, 1.8975, 0.825, 1.7325, 0.66, 1.5675, 0.495, 1.4025, 0.33, 1.2375, 0.165, 1.0725, 0, 0.9075, 1.815, 0.7425, 1.65, 0.5775, 1.485, 0.4125, 1.32, 0.2475, 1.155, 0.0825, 0.99, 1.8975, 0.825, 1.7325, 0.66, 1.5675, 0.495, 1.4025, 0.33, 1.2375, 0.165, 1.0725, 0, 0.9075, 1.815, 0.7425, 1.65, 0.5775, 1.485, 0.4125, 1.32, 0.2475, 1.155, 0.0825, 0.99, 1.8975, 0.825, 1.7325, 0.66, 1.5675, 0.495, 1.4025, 0.33, 1.2375, 0.165, 1.0725],
  "SoftwareVersions": "syngo_MR_D13D",
  "SpacingBetweenSlices": 1.9,
  "StationName": "AWP66014",
  "TaskName": "localizer",
  "TotalReadoutTime": 0.0534753,
  "TxRefAmp": 213.525,
  "WipMemBlock": "4769d52e-9021-48e0-8af0-c58428240392||Sequence: vd13d/master r/0735857; Nov 19 2014 09:21:40 by eja",
  "dcmmeta_affine": [
    [-1.8958154916763306, 0.0463327132165432, 0.025454184040427208, 105.71771240234375],
    [0.04551916569471359, 1.8950761556625366, -0.059462543576955795, -99.50531768798828],
    [0.02683825045824051, 0.058721765875816345, 1.898898720741272, -72.18922424316406],
    [0.0, 0.0, 0.0, 1.0]
],
  "dcmmeta_reorient_transform": [
    [0.0, -1.0, 0.0, 115.0],
    [1.0, 0.0, 0.0, 0.0],
    [0.0, 0.0, 1.0, 0.0],
    [0.0, 0.0, 0.0, 1.0]
],
  "dcmmeta_shape": [116, 116, 72, 164],
  "dcmmeta_slice_dim": 2,
  "dcmmeta_version": 0.6,
  "global": {
    "const": {
      "AcquisitionMatrix": [116, 0, 0, 116],
      "AngioFlag": "N",
      "BitsAllocated": 16,
      "BitsStored": 16,
      "BodyPartExamined": "HEAD",
      "Columns": 1044,
      "EchoNumbers": 1,
      "EchoTime": 30.0,
      "EchoTrainLength": 50,
      "FlipAngle": 81.0,
      "HighBit": 15,
      "ImageOrientationPatient": [0.99961177378486, -0.0240010148914, 0.01415107751601, 0.02442997638478, 0.99922195081297, -0.0309623847169],
      "ImagePositionPatient": [-1012.2027190997, -976.62285959059, -50.642267260873],
      "ImageType": [
        "ORIGINAL",
        "PRIMARY",
        "M",
        "MB",
        "ND",
        "MOSAIC"
],
      "ImagedNucleus": "1H",
      "ImagingFrequency": 123.260582,
      "InPlanePhaseEncodingDirection": "COL",
      "LargestImagePixelValue": 65535,
      "MRAcquisitionType": "2D",
      "MagneticFieldStrength": 3.0,
      "Manufacturer": "SIEMENS",
      "ManufacturerModelName": "Prisma",
      "Modality": "MR",
      "NumberOfAverages": 1.0,
      "NumberOfPhaseEncodingSteps": 101,
      "PercentPhaseFieldOfView": 100.0,
      "PercentSampling": 100.0,
      "PerformedProcedureStepStartTime": "171451.006000",
      "PhotometricInterpretation": "MONOCHROME2",
      "PixelBandwidth": 1435.0,
      "PixelRepresentation": 0,
      "PixelSpacing": [1.8965517282486, 1.8965517282486],
      "ProtocolName": "mbep2d_bold_MB3_loca1",
      "RepetitionTime": 2000.0,
      "Rows": 1044,
      "SAR": 0.05102326654986,
      "SamplesPerPixel": 1,
      "ScanOptions": [
        "PFP",
        "FS"
],
      "ScanningSequence": "EP",
      "SequenceName": "epfid2d1_116",
      "SequenceVariant": [
        "SK",
        "SS"
],
      "SeriesDescription": "mbep2d_bold_MB3_loca1",
      "SeriesNumber": 9,
      "SeriesTime": "180644.572000",
      "SliceLocation": -67.616957886605,
      "SliceThickness": 1.8999999761581,
      "SmallestImagePixelValue": 0,
      "SoftwareVersions": "syngo MR D13D",
      "SpacingBetweenSlices": 1.8999999975449,
      "SpecificCharacterSet": "ISO_IR 100",
      "StudyID": "1",
      "StudyTime": "171450.883000",
      "TimeOfLastCalibration": ["123723.000000", "123723.000000"],
      "TransmitCoilName": "Body",
      "VariableFlipAngleFlag": "N",
      "WindowCenterWidthExplanation": "Algo1",
      "dBdt": 0.0},
    "slices": {}
  },
  "time": {
    "samples": {
      "AcquisitionNumber": [1, 2, 3, 4, 5, 6, 7, 8, 9, 10, 11, 12, 13, 14, 15, 16, 17, 18, 19, 20, 21, 22, 23, 24, 25, 26, 27, 28, 29, 30, 31, 32, 33, 34, 35, 36, 37, 38, 39, 40, 41, 42, 43, 44, 45, 46, 47, 48, 49, 50, 51, 52, 53, 54, 55, 56, 57, 58, 59, 60, 61, 62, 63, 64, 65, 66, 67, 68, 69, 70, 71, 72, 73, 74, 75, 76, 77, 78, 79, 80, 81, 82, 83, 84, 85, 86, 87, 88, 89, 90, 91, 92, 93, 94, 95, 96, 97, 98, 99, 100, 101, 102, 103, 104, 105, 106, 107, 108, 109, 110, 111, 112, 113, 114, 115, 116, 117, 118, 119, 120, 121, 122, 123, 124, 125, 126, 127, 128, 129, 130, 131, 132, 133, 134, 135, 136, 137, 138, 139, 140, 141, 142, 143, 144, 145, 146, 147, 148, 149, 150, 151, 152, 153, 154, 155, 156, 157, 158, 159, 160, 161, 162, 163, 164],
      "AcquisitionTime": ["180632.565000", "180634.565000", "180636.565000", "180638.565000", "180640.565000", "180642.565000", "180644.565000", "180646.565000", "180648.565000", "180650.565000", "180652.565000", "180654.565000", "180656.565000", "180658.565000", "180700.565000", "180702.565000", "180704.565000", "180706.565000", "180708.565000", "180710.565000", "180712.565000", "180714.565000", "180716.565000", "180718.565000", "180720.565000", "180722.565000", "180724.565000", "180726.565000", "180728.565000", "180730.565000", "180732.565000", "180734.565000", "180736.565000", "180738.565000", "180740.565000", "180742.565000", "180744.565000", "180746.565000", "180748.565000", "180750.565000", "180752.565000", "180754.565000", "180756.565000", "180758.565000", "180800.565000", "180802.565000", "180804.565000", "180806.565000", "180808.565000", "180810.565000", "180812.565000", "180814.565000", "180816.565000", "180818.565000", "180820.565000", "180822.565000", "180824.565000", "180826.565000", "180828.565000", "180830.565000", "180832.565000", "180834.565000", "180836.565000", "180838.565000", "180840.565000", "180842.565000", "180844.565000", "180846.565000", "180848.565000", "180850.565000", "180852.565000", "180854.565000", "180856.565000", "180858.565000", "180900.565000", "180902.565000", "180904.565000", "180906.565000", "180908.565000", "180910.565000", "180912.565000", "180914.565000", "180916.565000", "180918.565000", "180920.565000", "180922.565000", "180924.565000", "180926.565000", "180928.565000", "180930.565000", "180932.565000", "180934.565000", "180936.565000", "180938.565000", "180940.565000", "180942.565000", "180944.565000", "180946.565000", "180948.565000", "180950.565000", "180952.565000", "180954.565000", "180956.565000", "180958.565000", "181000.565000", "181002.565000", "181004.565000", "181006.565000", "181008.565000", "181010.565000", "181012.565000", "181014.565000", "181016.565000", "181018.565000", "181020.565000", "181022.565000", "181024.565000", "181026.565000", "181028.565000", "181030.565000", "181032.565000", "181034.565000", "181036.565000", "181038.565000", "181040.565000", "181042.565000", "181044.565000", "181046.565000", "181048.565000", "181050.565000", "181052.565000", "181054.565000", "181056.565000", "181058.565000", "181100.565000", "181102.565000", "181104.565000", "181106.565000", "181108.565000", "181110.565000", "181112.565000", "181114.565000", "181116.565000", "181118.565000", "181120.565000", "181122.565000", "181124.565000", "181126.565000", "181128.565000", "181130.565000", "181132.565000", "181134.565000", "181136.565000", "181138.565000", "181140.565000", "181142.565000", "181144.565000", "181146.565000", "181148.565000", "181150.565000", "181152.565000", "181154.565000", "181156.565000", "181158.565000"],
      "ContentTime": ["180644.578000", "180645.570000", "180645.574000", "180646.570000", "180646.574000", "180647.571000", "180648.571000", "180649.570000", "180651.571000", "180653.571000", "180655.572000", "180657.570000", "180659.571000", "180701.571000", "180703.572000", "180705.571000", "180707.571000", "180709.571000", "180711.571000", "180713.571000", "180715.571000", "180717.572000", "180719.572000", "180721.572000", "180723.571000", "180725.570000", "180727.571000", "180729.571000", "180731.571000", "180733.570000", "180735.571000", "180737.571000", "180739.572000", "180741.572000", "180743.571000", "180745.571000", "180747.571000", "180749.571000", "180751.571000", "180753.572000", "180755.571000", "180757.572000", "180759.570000", "180801.571000", "180803.571000", "180805.571000", "180807.571000", "180809.571000", "180811.571000", "180813.572000", "180815.571000", "180817.571000", "180819.570000", "180821.571000", "180823.571000", "180825.571000", "180827.571000", "180829.572000", "180831.572000", "180833.571000", "180835.571000", "180837.571000", "180839.572000", "180841.571000", "180843.571000", "180845.571000", "180847.571000", "180849.572000", "180851.571000", "180853.571000", "180855.571000", "180857.571000", "180859.571000", "180901.571000", "180903.571000", "180905.570000", "180907.572000", "180909.571000", "180911.571000", "180913.571000", "180915.572000", "180917.571000", "180919.571000", "180921.571000", "180923.572000", "180925.571000", "180927.571000", "180929.571000", "180931.571000", "180933.571000", "180935.571000", "180937.571000", "180939.571000", "180941.572000", "180943.571000", "180945.571000", "180947.571000", "180949.571000", "180951.571000", "180953.571000", "180955.571000", "180957.571000", "180959.572000", "181001.572000", "181003.571000", "181005.571000", "181007.571000", "181009.571000", "181011.571000", "181013.571000", "181015.571000", "181017.572000", "181019.571000", "181021.571000", "181023.571000", "181025.571000", "181027.571000", "181029.571000", "181031.571000", "181033.571000", "181035.571000", "181037.571000", "181039.570000", "181041.571000", "181043.570000", "181045.570000", "181047.571000", "181049.571000", "181051.572000", "181053.571000", "181055.569000", "181057.571000", "181059.571000", "181101.571000", "181103.571000", "181105.571000", "181107.571000", "181109.572000", "181111.571000", "181113.571000", "181115.571000", "181117.572000", "181119.571000", "181121.571000", "181123.571000", "181125.571000", "181127.572000", "181129.571000", "181131.571000", "181133.571000", "181135.571000", "181137.571000", "181139.571000", "181141.571000", "181143.572000", "181145.571000", "181147.571000", "181149.571000", "181151.571000", "181153.571000", "181155.571000", "181157.571000", "181159.571000", "181201.478000"],
      "InstanceCreationTime": ["180644.578000", "180645.570000", "180645.574000", "180646.570000", "180646.574000", "180647.571000", "180648.571000", "180649.570000", "180651.571000", "180653.571000", "180655.572000", "180657.570000", "180659.571000", "180701.571000", "180703.572000", "180705.571000", "180707.571000", "180709.571000", "180711.571000", "180713.571000", "180715.571000", "180717.572000", "180719.572000", "180721.572000", "180723.571000", "180725.570000", "180727.571000", "180729.571000", "180731.571000", "180733.570000", "180735.571000", "180737.571000", "180739.572000", "180741.572000", "180743.571000", "180745.571000", "180747.571000", "180749.571000", "180751.571000", "180753.572000", "180755.571000", "180757.572000", "180759.570000", "180801.571000", "180803.571000", "180805.571000", "180807.571000", "180809.571000", "180811.571000", "180813.572000", "180815.571000", "180817.571000", "180819.570000", "180821.571000", "180823.571000", "180825.571000", "180827.571000", "180829.572000", "180831.572000", "180833.571000", "180835.571000", "180837.571000", "180839.572000", "180841.571000", "180843.571000", "180845.571000", "180847.571000", "180849.572000", "180851.571000", "180853.571000", "180855.571000", "180857.571000", "180859.571000", "180901.571000", "180903.571000", "180905.570000", "180907.572000", "180909.571000", "180911.571000", "180913.571000", "180915.572000", "180917.571000", "180919.571000", "180921.571000", "180923.572000", "180925.571000", "180927.571000", "180929.571000", "180931.571000", "180933.571000", "180935.571000", "180937.571000", "180939.571000", "180941.572000", "180943.571000", "180945.571000", "180947.571000", "180949.571000", "180951.571000", "180953.571000", "180955.571000", "180957.571000", "180959.572000", "181001.572000", "181003.571000", "181005.571000", "181007.571000", "181009.571000", "181011.571000", "181013.571000", "181015.571000", "181017.572000", "181019.571000", "181021.571000", "181023.571000", "181025.571000", "181027.571000", "181029.571000", "181031.571000", "181033.571000", "181035.571000", "181037.571000", "181039.570000", "181041.571000", "181043.570000", "181045.570000", "181047.571000", "181049.571000", "181051.572000", "181053.571000", "181055.569000", "181057.571000", "181059.571000", "181101.571000", "181103.571000", "181105.571000", "181107.571000", "181109.572000", "181111.571000", "181113.571000", "181115.571000", "181117.572000", "181119.571000", "181121.571000", "181123.571000", "181125.571000", "181127.572000", "181129.571000", "181131.571000", "181133.571000", "181135.571000", "181137.571000", "181139.571000", "181141.571000", "181143.572000", "181145.571000", "181147.571000", "181149.571000", "181151.571000", "181153.571000", "181155.571000", "181157.571000", "181159.571000", "181201.478000"],
      "InstanceNumber": [1, 2, 3, 4, 5, 6, 7, 8, 9, 10, 11, 12, 13, 14, 15, 16, 17, 18, 19, 20, 21, 22, 23, 24, 25, 26, 27, 28, 29, 30, 31, 32, 33, 34, 35, 36, 37, 38, 39, 40, 41, 42, 43, 44, 45, 46, 47, 48, 49, 50, 51, 52, 53, 54, 55, 56, 57, 58, 59, 60, 61, 62, 63, 64, 65, 66, 67, 68, 69, 70, 71, 72, 73, 74, 75, 76, 77, 78, 79, 80, 81, 82, 83, 84, 85, 86, 87, 88, 89, 90, 91, 92, 93, 94, 95, 96, 97, 98, 99, 100, 101, 102, 103, 104, 105, 106, 107, 108, 109, 110, 111, 112, 113, 114, 115, 116, 117, 118, 119, 120, 121, 122, 123, 124, 125, 126, 127, 128, 129, 130, 131, 132, 133, 134, 135, 136, 137, 138, 139, 140, 141, 142, 143, 144, 145, 146, 147, 148, 149, 150, 151, 152, 153, 154, 155, 156, 157, 158, 159, 160, 161, 162, 163, 164],
      "WindowCenter": [15326.0, 15312.0, 15309.0, 15319.0, 15327.0, 15318.0, 15302.0, 15309.0, 15283.0, 15294.0, 15287.0, 15302.0, 15291.0, 15314.0, 15302.0, 15312.0, 15298.0, 15302.0, 15302.0, 15298.0, 15272.0, 15278.0, 15280.0, 15298.0, 15293.0, 15312.0, 15302.0, 15297.0, 15300.0, 15297.0, 15285.0, 15290.0, 15297.0, 15293.0, 15298.0, 15310.0, 15289.0, 15301.0, 15292.0, 15302.0, 15288.0, 15289.0, 15294.0, 15267.0, 15291.0, 15305.0, 15289.0, 15289.0, 15295.0, 15293.0, 15291.0, 15277.0, 15293.0, 15283.0, 15276.0, 15265.0, 15264.0, 15279.0, 15275.0, 15306.0, 15291.0, 15294.0, 15281.0, 15295.0, 15293.0, 15276.0, 15280.0, 15288.0, 15282.0, 15279.0, 15305.0, 15284.0, 15285.0, 15269.0, 15293.0, 15280.0, 15284.0, 15285.0, 15263.0, 15262.0, 15281.0, 15291.0, 15280.0, 15266.0, 15280.0, 15288.0, 15275.0, 15295.0, 15289.0, 15282.0, 15267.0, 15284.0, 15261.0, 15263.0, 15270.0, 15272.0, 15282.0, 15276.0, 15268.0, 15277.0, 15287.0, 15284.0, 15282.0, 15286.0, 15275.0, 15287.0, 15285.0, 15287.0, 15278.0, 15286.0, 15282.0, 15285.0, 15283.0, 15283.0, 15287.0, 15283.0, 15285.0, 15289.0, 15277.0, 15271.0, 15288.0, 15286.0, 15300.0, 15299.0, 15296.0, 15281.0, 15284.0, 15278.0, 15280.0, 15289.0, 15286.0, 15277.0, 15278.0, 15292.0, 15298.0, 15285.0, 15275.0, 15300.0, 15287.0, 15282.0, 15292.0, 15299.0, 15308.0, 15300.0, 15298.0, 15301.0, 15292.0, 15304.0, 15295.0, 15310.0, 15316.0, 15301.0, 15304.0, 15295.0, 15299.0, 15307.0, 15308.0, 15325.0, 15304.0, 15311.0, 15315.0, 15307.0, 15308.0, 15291.0],
      "WindowWidth": [46114.0, 46030.0, 46042.0, 46037.0, 46043.0, 46035.0, 46021.0, 45997.0, 45990.0, 45929.0, 45936.0, 45921.0, 45909.0, 45844.0, 45805.0, 45787.0, 45834.0, 45850.0, 45793.0, 45761.0, 45782.0, 45844.0, 45917.0, 45933.0, 45944.0, 45932.0, 45909.0, 45933.0, 45936.0, 45933.0, 45921.0, 45855.0, 45831.0, 45842.0, 45832.0, 45786.0, 45812.0, 45823.0, 45873.0, 45908.0, 45883.0, 45839.0, 45858.0, 45949.0, 45969.0, 45939.0, 45882.0, 45841.0, 45860.0, 45843.0, 45827.0, 45859.0, 45857.0, 45833.0, 45813.0, 45833.0, 45861.0, 45862.0, 45886.0, 45927.0, 45957.0, 45973.0, 45934.0, 45887.0, 45846.0, 45915.0, 45963.0, 45970.0, 45964.0, 45947.0, 45867.0, 45793.0, 45781.0, 45854.0, 45887.0, 45905.0, 45893.0, 45908.0, 45917.0, 45915.0, 45933.0, 45913.0, 45891.0, 45906.0, 45919.0, 45911.0, 45886.0, 45817.0, 45798.0, 45820.0, 45793.0, 45748.0, 45745.0, 45818.0, 45912.0, 45970.0, 45963.0, 45900.0, 45863.0, 45902.0, 45897.0, 45880.0, 45850.0, 45823.0, 45830.0, 45824.0, 45782.0, 45768.0, 45805.0, 45882.0, 45894.0, 45910.0, 45921.0, 45923.0, 45940.0, 45951.0, 45965.0, 45983.0, 45960.0, 45969.0, 45941.0, 45938.0, 45892.0, 45861.0, 45846.0, 45817.0, 45807.0, 45857.0, 45906.0, 45912.0, 45893.0, 45902.0, 45960.0, 45988.0, 45991.0, 45966.0, 45957.0, 45909.0, 45910.0, 45905.0, 45901.0, 45906.0, 45872.0, 45864.0, 45905.0, 45909.0, 45899.0, 45898.0, 45947.0, 45974.0, 45965.0, 45965.0, 45910.0, 45859.0, 45893.0, 45914.0, 45929.0, 45930.0, 45925.0, 45904.0, 45906.0, 45899.0, 45912.0, 45928.0]
    },
    "slices": {}
  }
}