{
  "AcquisitionMatrixPE": 116,
  "AcquisitionNumber": 1,
  "AcquisitionTime": "15:26:0.590000",
  "BandwidthPerPixelPhaseEncode": 18.539,
  "BaseResolution": 116,
  "BodyPartExamined": "HEAD",
  "ConsistencyInfo": "N4_VD13D_LATEST_20130810",
  "ConversionSoftware": "dcm2niix",
  "ConversionSoftwareVersion": "v1.0.20190410  (JP2:OpenJPEG) (JP-LS:CharLS) GCC5.5.0",
  "DerivedVendorReportedEchoSpacing": 0.000930006,
  "DeviceSerialNumber": "66014",
  "DwellTime": 3e-06,
  "EchoTime": 0.03,
  "EchoTrainLength": 50,
  "EffectiveEchoSpacing": 0.000465003,
  "FlipAngle": 81,
  "ImageComments": "Unaliased_MB3_PE4",
  "ImageOrientationPatientDICOM": [0.99882, -0.0262111, 0.0408787, 0.0313892, 0.990797, -0.131665],
  "ImageType": [
    "ORIGINAL",
    "PRIMARY",
    "M",
    "MB",
    "ND",
    "MOSAIC"
],
  "ImagingFrequency": 123.261,
  "InPlanePhaseEncodingDirectionDICOM": "COL",
  "InstitutionAddress": "Yiheyuan_Road_5_Beijing_Haidian_CN_100871",
  "InstitutionName": "Peking_University",
  "InstitutionalDepartmentName": "Department",
  "MRAcquisitionType": "2D",
  "MagneticFieldStrength": 3,
  "Manufacturer": "Siemens",
  "ManufacturersModelName": "Prisma",
  "Modality": "MR",
  "MultibandAccelerationFactor": 3,
  "ParallelReductionFactorInPlane": 2,
  "PartialFourier": 0.875,
  "PatientPosition": "HFS",
  "PercentPhaseFOV": 100,
  "PhaseEncodingDirection": "j-",
  "PhaseEncodingSteps": 101,
  "PhaseResolution": 1,
  "PixelBandwidth": 1435,
  "ProcedureStepDescription": "Research_Projects_64CH",
  "ProtocolName": "mbep2d_bold_MB3_learn4",
  "PulseSequenceDetails": "%CustomerSeq%_cmrr_mbep2d_bold",
  "ReceiveCoilActiveElements": "HC1-7",
  "ReceiveCoilName": "HeadNeck_64",
  "ReconMatrixPE": 116,
  "RefLinesPE": 44,
  "RepetitionTime": 2,
  "SAR": 0.0629103,
  "ScanOptions": "PFP_FS",
  "ScanningSequence": "EP",
  "SequenceName": "epfid2d1_116",
  "SequenceVariant": "SK_SS",
  "SeriesDescription": "mbep2d_bold_MB3_learn4",
  "SeriesNumber": 9,
  "ShimSetting": [-3450, -2116, -1932, 457, 21, -220, 62, -10],
  "SliceThickness": 1.9,
  "SliceTiming": [0, 0.9075, 1.815, 0.7425, 1.65, 0.5775, 1.485, 0.4125, 1.32, 0.2475, 1.155, 0.0825, 0.99, 1.8975, 0.825, 1.7325, 0.66, 1.5675, 0.495, 1.4025, 0.33, 1.2375, 0.165, 1.0725, 0, 0.9075, 1.815, 0.7425, 1.65, 0.5775, 1.485, 0.4125, 1.32, 0.2475, 1.155, 0.0825, 0.99, 1.8975, 0.825, 1.7325, 0.66, 1.5675, 0.495, 1.4025, 0.33, 1.2375, 0.165, 1.0725, 0, 0.9075, 1.815, 0.7425, 1.65, 0.5775, 1.485, 0.4125, 1.32, 0.2475, 1.155, 0.0825, 0.99, 1.8975, 0.825, 1.7325, 0.66, 1.5675, 0.495, 1.4025, 0.33, 1.2375, 0.165, 1.0725],
  "SoftwareVersions": "syngo_MR_D13D",
  "SpacingBetweenSlices": 1.9,
  "StationName": "AWP66014",
  "TaskName": "updating",
  "TotalReadoutTime": 0.0534753,
  "TxRefAmp": 216.085,
  "WipMemBlock": "16432791-fed2-4076-a467-85eaab2c777a||Sequence: vd13d/master r/0735857; Nov 19 2014 09:21:40 by eja",
  "dcmmeta_affine": [
    [-1.8943142890930176, 0.05953129380941391, 0.0703977569937706, 103.78595733642578],
    [0.04971073195338249, 1.8790980577468872, -0.25230640172958374, -96.73758697509766],
    [0.07752864062786102, 0.24970953166484833, 1.8818570375442505, -89.73324584960938],
    [0.0, 0.0, 0.0, 1.0]
],
  "dcmmeta_reorient_transform": [
    [0.0, -1.0, 0.0, 115.0],
    [1.0, 0.0, 0.0, 0.0],
    [0.0, 0.0, 1.0, 0.0],
    [0.0, 0.0, 0.0, 1.0]
],
  "dcmmeta_shape": [116, 116, 72, 218],
  "dcmmeta_slice_dim": 2,
  "dcmmeta_version": 0.6,
  "global": {
    "const": {
      "AcquisitionMatrix": [116, 0, 0, 116],
      "AngioFlag": "N",
      "BitsAllocated": 16,
      "BitsStored": 16,
      "BodyPartExamined": "HEAD",
      "Columns": 1044,
      "EchoNumbers": 1,
      "EchoTime": 30.0,
      "EchoTrainLength": 50,
      "FlipAngle": 81.0,
      "HighBit": 15,
      "ImageOrientationPatient": [0.99882025732593, -0.0262111124896, 0.04087873698427, 0.03138922721502, 0.99079717304897, -0.1316650230434],
      "ImagePositionPatient": [-1017.2164069418, -968.19442966181, 18.875280082812],
      "ImageType": [
        "ORIGINAL",
        "PRIMARY",
        "M",
        "MB",
        "ND",
        "MOSAIC"
],
      "ImagedNucleus": "1H",
      "ImagingFrequency": 123.260585,
      "InPlanePhaseEncodingDirection": "COL",
      "LargestImagePixelValue": 65535,
      "MRAcquisitionType": "2D",
      "MagneticFieldStrength": 3.0,
      "Manufacturer": "SIEMENS",
      "ManufacturerModelName": "Prisma",
      "Modality": "MR",
      "NumberOfAverages": 1.0,
      "NumberOfPhaseEncodingSteps": 101,
      "PercentPhaseFieldOfView": 100.0,
      "PercentSampling": 100.0,
      "PerformedProcedureStepStartTime": "143507.591000",
      "PhotometricInterpretation": "MONOCHROME2",
      "PixelBandwidth": 1435.0,
      "PixelRepresentation": 0,
      "PixelSpacing": [1.8965517282486, 1.8965517282486],
      "ProtocolName": "mbep2d_bold_MB3_learn4",
      "RepetitionTime": 2000.0,
      "Rows": 1044,
      "SAR": 0.06291025065232,
      "SamplesPerPixel": 1,
      "ScanOptions": [
        "PFP",
        "FS"
],
      "ScanningSequence": "EP",
      "SequenceName": "epfid2d1_116",
      "SequenceVariant": [
        "SK",
        "SS"
],
      "SeriesDescription": "mbep2d_bold_MB3_learn4",
      "SeriesNumber": 9,
      "SeriesTime": "152616.010000",
      "SliceLocation": -72.184908183584,
      "SliceThickness": 1.8999999761581,
      "SmallestImagePixelValue": 0,
      "SoftwareVersions": "syngo MR D13D",
      "SpacingBetweenSlices": 1.9000000332859,
      "SpecificCharacterSet": "ISO_IR 100",
      "StudyID": "1",
      "StudyTime": "143507.515000",
      "TimeOfLastCalibration": ["123723.000000", "123723.000000"],
      "TransmitCoilName": "Body",
      "VariableFlipAngleFlag": "N",
      "WindowCenterWidthExplanation": "Algo1",
      "dBdt": 0.0},
    "slices": {}
  },
  "time": {
    "samples": {
      "AcquisitionNumber": [1, 2, 3, 4, 5, 6, 7, 8, 9, 10, 11, 12, 13, 14, 15, 16, 17, 18, 19, 20, 21, 22, 23, 24, 25, 26, 27, 28, 29, 30, 31, 32, 33, 34, 35, 36, 37, 38, 39, 40, 41, 42, 43, 44, 45, 46, 47, 48, 49, 50, 51, 52, 53, 54, 55, 56, 57, 58, 59, 60, 61, 62, 63, 64, 65, 66, 67, 68, 69, 70, 71, 72, 73, 74, 75, 76, 77, 78, 79, 80, 81, 82, 83, 84, 85, 86, 87, 88, 89, 90, 91, 92, 93, 94, 95, 96, 97, 98, 99, 100, 101, 102, 103, 104, 105, 106, 107, 108, 109, 110, 111, 112, 113, 114, 115, 116, 117, 118, 119, 120, 121, 122, 123, 124, 125, 126, 127, 128, 129, 130, 131, 132, 133, 134, 135, 136, 137, 138, 139, 140, 141, 142, 143, 144, 145, 146, 147, 148, 149, 150, 151, 152, 153, 154, 155, 156, 157, 158, 159, 160, 161, 162, 163, 164, 165, 166, 167, 168, 169, 170, 171, 172, 173, 174, 175, 176, 177, 178, 179, 180, 181, 182, 183, 184, 185, 186, 187, 188, 189, 190, 191, 192, 193, 194, 195, 196, 197, 198, 199, 200, 201, 202, 203, 204, 205, 206, 207, 208, 209, 210, 211, 212, 213, 214, 215, 216, 217, 218],
      "AcquisitionTime": ["152600.590000", "152602.590000", "152604.590000", "152606.590000", "152608.590000", "152610.590000", "152612.590000", "152614.590000", "152616.590000", "152618.590000", "152620.590000", "152622.590000", "152624.590000", "152626.590000", "152628.590000", "152630.590000", "152632.590000", "152634.590000", "152636.590000", "152638.590000", "152640.590000", "152642.590000", "152644.590000", "152646.590000", "152648.590000", "152650.590000", "152652.590000", "152654.590000", "152656.590000", "152658.590000", "152700.590000", "152702.590000", "152704.590000", "152706.590000", "152708.590000", "152710.590000", "152712.590000", "152714.590000", "152716.590000", "152718.590000", "152720.590000", "152722.590000", "152724.590000", "152726.590000", "152728.590000", "152730.590000", "152732.590000", "152734.590000", "152736.590000", "152738.590000", "152740.590000", "152742.590000", "152744.590000", "152746.590000", "152748.590000", "152750.590000", "152752.590000", "152754.590000", "152756.590000", "152758.590000", "152800.590000", "152802.590000", "152804.590000", "152806.590000", "152808.590000", "152810.590000", "152812.590000", "152814.590000", "152816.590000", "152818.590000", "152820.590000", "152822.590000", "152824.590000", "152826.590000", "152828.590000", "152830.590000", "152832.590000", "152834.590000", "152836.590000", "152838.590000", "152840.590000", "152842.590000", "152844.590000", "152846.590000", "152848.590000", "152850.590000", "152852.590000", "152854.590000", "152856.590000", "152858.590000", "152900.590000", "152902.590000", "152904.590000", "152906.590000", "152908.590000", "152910.590000", "152912.590000", "152914.590000", "152916.590000", "152918.590000", "152920.590000", "152922.590000", "152924.590000", "152926.590000", "152928.590000", "152930.590000", "152932.590000", "152934.590000", "152936.590000", "152938.590000", "152940.590000", "152942.590000", "152944.590000", "152946.590000", "152948.590000", "152950.590000", "152952.590000", "152954.590000", "152956.590000", "152958.590000", "153000.590000", "153002.590000", "153004.590000", "153006.590000", "153008.590000", "153010.590000", "153012.590000", "153014.590000", "153016.590000", "153018.590000", "153020.590000", "153022.590000", "153024.590000", "153026.590000", "153028.590000", "153030.590000", "153032.590000", "153034.590000", "153036.590000", "153038.590000", "153040.590000", "153042.590000", "153044.590000", "153046.590000", "153048.590000", "153050.590000", "153052.590000", "153054.590000", "153056.590000", "153058.590000", "153100.590000", "153102.590000", "153104.590000", "153106.590000", "153108.590000", "153110.590000", "153112.590000", "153114.590000", "153116.590000", "153118.590000", "153120.590000", "153122.590000", "153124.590000", "153126.590000", "153128.590000", "153130.590000", "153132.590000", "153134.590000", "153136.590000", "153138.590000", "153140.590000", "153142.590000", "153144.590000", "153146.590000", "153148.590000", "153150.590000", "153152.590000", "153154.590000", "153156.592500", "153158.592500", "153200.592500", "153202.592500", "153204.592500", "153206.592500", "153208.592500", "153210.592500", "153212.592500", "153214.592500", "153216.592500", "153218.592500", "153220.592500", "153222.592500", "153224.592500", "153226.592500", "153228.592500", "153230.592500", "153232.592500", "153234.592500", "153236.592500", "153238.592500", "153240.592500", "153242.592500", "153244.592500", "153246.592500", "153248.592500", "153250.592500", "153252.592500", "153254.592500", "153256.592500", "153258.592500", "153300.592500", "153302.592500", "153304.592500", "153306.592500", "153308.592500", "153310.592500", "153312.592500", "153314.592500"],
      "ContentTime": ["152616.016000", "152617.009000", "152617.013000", "152618.010000", "152619.010000", "152619.015000", "152620.008000", "152621.010000", "152622.008000", "152623.009000", "152623.014000", "152625.010000", "152627.010000", "152629.010000", "152631.010000", "152633.010000", "152635.010000", "152637.010000", "152639.010000", "152641.010000", "152643.010000", "152645.010000", "152647.010000", "152649.010000", "152651.010000", "152653.010000", "152655.009000", "152657.010000", "152659.010000", "152701.010000", "152703.010000", "152705.010000", "152707.011000", "152709.010000", "152711.009000", "152713.009000", "152715.010000", "152717.010000", "152719.010000", "152721.010000", "152723.010000", "152725.010000", "152727.010000", "152729.010000", "152731.010000", "152733.010000", "152735.010000", "152737.011000", "152739.010000", "152741.010000", "152743.010000", "152745.010000", "152747.010000", "152749.010000", "152751.010000", "152753.010000", "152755.010000", "152757.010000", "152759.010000", "152801.010000", "152803.010000", "152805.009000", "152807.010000", "152809.010000", "152811.010000", "152813.010000", "152815.010000", "152817.008000", "152819.010000", "152821.010000", "152823.009000", "152825.010000", "152827.010000", "152829.010000", "152831.010000", "152833.010000", "152835.010000", "152837.010000", "152839.009000", "152841.010000", "152843.011000", "152845.010000", "152847.010000", "152849.010000", "152851.010000", "152853.010000", "152855.010000", "152857.010000", "152859.010000", "152901.010000", "152903.010000", "152905.010000", "152907.010000", "152909.010000", "152911.010000", "152913.010000", "152915.009000", "152917.010000", "152919.010000", "152921.010000", "152923.010000", "152925.010000", "152927.010000", "152929.010000", "152931.010000", "152933.009000", "152935.010000", "152937.010000", "152939.010000", "152941.010000", "152943.015000", "152945.010000", "152947.010000", "152949.011000", "152951.010000", "152953.010000", "152955.010000", "152957.010000", "152959.010000", "153001.010000", "153003.011000", "153005.010000", "153007.010000", "153009.010000", "153011.010000", "153013.010000", "153015.010000", "153017.010000", "153019.010000", "153021.010000", "153023.011000", "153025.013000", "153027.012000", "153029.011000", "153031.010000", "153033.010000", "153035.010000", "153037.010000", "153039.010000", "153041.010000", "153043.009000", "153045.010000", "153047.010000", "153049.010000", "153051.010000", "153053.010000", "153055.010000", "153057.010000", "153059.010000", "153101.010000", "153103.010000", "153105.010000", "153107.010000", "153109.010000", "153111.010000", "153113.010000", "153115.010000", "153117.010000", "153119.010000", "153121.010000", "153123.010000", "153125.010000", "153127.010000", "153129.010000", "153131.010000", "153133.010000", "153135.009000", "153137.010000", "153139.010000", "153141.010000", "153143.010000", "153145.010000", "153147.010000", "153149.010000", "153151.010000", "153153.009000", "153155.011000", "153157.010000", "153159.010000", "153201.010000", "153203.010000", "153205.010000", "153207.010000", "153209.009000", "153211.010000", "153213.010000", "153215.010000", "153217.010000", "153219.010000", "153221.010000", "153223.010000", "153225.010000", "153227.010000", "153229.010000", "153231.010000", "153233.010000", "153235.010000", "153237.009000", "153239.010000", "153241.010000", "153243.010000", "153245.009000", "153247.010000", "153249.010000", "153251.010000", "153253.010000", "153255.010000", "153257.010000", "153259.011000", "153301.010000", "153303.009000", "153305.010000", "153307.010000", "153309.010000", "153311.010000", "153313.010000", "153315.009000", "153316.921000"],
      "InstanceCreationTime": ["152616.016000", "152617.009000", "152617.013000", "152618.010000", "152619.010000", "152619.015000", "152620.008000", "152621.010000", "152622.008000", "152623.009000", "152623.014000", "152625.010000", "152627.010000", "152629.010000", "152631.010000", "152633.010000", "152635.010000", "152637.010000", "152639.010000", "152641.010000", "152643.010000", "152645.010000", "152647.010000", "152649.010000", "152651.010000", "152653.010000", "152655.009000", "152657.010000", "152659.010000", "152701.010000", "152703.010000", "152705.010000", "152707.011000", "152709.010000", "152711.009000", "152713.009000", "152715.010000", "152717.010000", "152719.010000", "152721.010000", "152723.010000", "152725.010000", "152727.010000", "152729.010000", "152731.010000", "152733.010000", "152735.010000", "152737.011000", "152739.010000", "152741.010000", "152743.010000", "152745.010000", "152747.010000", "152749.010000", "152751.010000", "152753.010000", "152755.010000", "152757.010000", "152759.010000", "152801.010000", "152803.010000", "152805.009000", "152807.010000", "152809.010000", "152811.010000", "152813.010000", "152815.010000", "152817.008000", "152819.010000", "152821.010000", "152823.009000", "152825.010000", "152827.010000", "152829.010000", "152831.010000", "152833.010000", "152835.010000", "152837.010000", "152839.009000", "152841.010000", "152843.011000", "152845.010000", "152847.010000", "152849.010000", "152851.010000", "152853.010000", "152855.010000", "152857.010000", "152859.010000", "152901.010000", "152903.010000", "152905.010000", "152907.010000", "152909.010000", "152911.010000", "152913.010000", "152915.009000", "152917.010000", "152919.010000", "152921.010000", "152923.010000", "152925.010000", "152927.010000", "152929.010000", "152931.010000", "152933.009000", "152935.010000", "152937.010000", "152939.010000", "152941.010000", "152943.015000", "152945.010000", "152947.010000", "152949.011000", "152951.010000", "152953.010000", "152955.010000", "152957.010000", "152959.010000", "153001.010000", "153003.011000", "153005.010000", "153007.010000", "153009.010000", "153011.010000", "153013.010000", "153015.010000", "153017.010000", "153019.010000", "153021.010000", "153023.011000", "153025.013000", "153027.012000", "153029.011000", "153031.010000", "153033.010000", "153035.010000", "153037.010000", "153039.010000", "153041.010000", "153043.009000", "153045.010000", "153047.010000", "153049.010000", "153051.010000", "153053.010000", "153055.010000", "153057.010000", "153059.010000", "153101.010000", "153103.010000", "153105.010000", "153107.010000", "153109.010000", "153111.010000", "153113.010000", "153115.010000", "153117.010000", "153119.010000", "153121.010000", "153123.010000", "153125.010000", "153127.010000", "153129.010000", "153131.010000", "153133.010000", "153135.009000", "153137.010000", "153139.010000", "153141.010000", "153143.010000", "153145.010000", "153147.010000", "153149.010000", "153151.010000", "153153.009000", "153155.011000", "153157.010000", "153159.010000", "153201.010000", "153203.010000", "153205.010000", "153207.010000", "153209.009000", "153211.010000", "153213.010000", "153215.010000", "153217.010000", "153219.010000", "153221.010000", "153223.010000", "153225.010000", "153227.010000", "153229.010000", "153231.010000", "153233.010000", "153235.010000", "153237.009000", "153239.010000", "153241.010000", "153243.010000", "153245.009000", "153247.010000", "153249.010000", "153251.010000", "153253.010000", "153255.010000", "153257.010000", "153259.011000", "153301.010000", "153303.009000", "153305.010000", "153307.010000", "153309.010000", "153311.010000", "153313.010000", "153315.009000", "153316.921000"],
      "InstanceNumber": [1, 2, 3, 4, 5, 6, 7, 8, 9, 10, 11, 12, 13, 14, 15, 16, 17, 18, 19, 20, 21, 22, 23, 24, 25, 26, 27, 28, 29, 30, 31, 32, 33, 34, 35, 36, 37, 38, 39, 40, 41, 42, 43, 44, 45, 46, 47, 48, 49, 50, 51, 52, 53, 54, 55, 56, 57, 58, 59, 60, 61, 62, 63, 64, 65, 66, 67, 68, 69, 70, 71, 72, 73, 74, 75, 76, 77, 78, 79, 80, 81, 82, 83, 84, 85, 86, 87, 88, 89, 90, 91, 92, 93, 94, 95, 96, 97, 98, 99, 100, 101, 102, 103, 104, 105, 106, 107, 108, 109, 110, 111, 112, 113, 114, 115, 116, 117, 118, 119, 120, 121, 122, 123, 124, 125, 126, 127, 128, 129, 130, 131, 132, 133, 134, 135, 136, 137, 138, 139, 140, 141, 142, 143, 144, 145, 146, 147, 148, 149, 150, 151, 152, 153, 154, 155, 156, 157, 158, 159, 160, 161, 162, 163, 164, 165, 166, 167, 168, 169, 170, 171, 172, 173, 174, 175, 176, 177, 178, 179, 180, 181, 182, 183, 184, 185, 186, 187, 188, 189, 190, 191, 192, 193, 194, 195, 196, 197, 198, 199, 200, 201, 202, 203, 204, 205, 206, 207, 208, 209, 210, 211, 212, 213, 214, 215, 216, 217, 218],
      "WindowCenter": [15450.0, 15429.0, 15447.0, 15447.0, 15440.0, 15447.0, 15431.0, 15438.0, 15429.0, 15430.0, 15428.0, 15424.0, 15432.0, 15442.0, 15434.0, 15433.0, 15423.0, 15434.0, 15426.0, 15424.0, 15432.0, 15458.0, 15447.0, 15435.0, 15438.0, 15432.0, 15418.0, 15427.0, 15429.0, 15419.0, 15429.0, 15428.0, 15434.0, 15428.0, 15443.0, 15450.0, 15454.0, 15452.0, 15440.0, 15418.0, 15423.0, 15445.0, 15448.0, 15448.0, 15428.0, 15430.0, 15447.0, 15428.0, 15433.0, 15440.0, 15441.0, 15453.0, 15441.0, 15424.0, 15425.0, 15423.0, 15424.0, 15407.0, 15429.0, 15417.0, 15434.0, 15436.0, 15430.0, 15437.0, 15429.0, 15425.0, 15423.0, 15416.0, 15425.0, 15428.0, 15436.0, 15426.0, 15440.0, 15422.0, 15420.0, 15420.0, 15423.0, 15436.0, 15434.0, 15431.0, 15435.0, 15408.0, 15430.0, 15424.0, 15408.0, 15411.0, 15419.0, 15417.0, 15446.0, 15443.0, 15451.0, 15470.0, 15451.0, 15448.0, 15441.0, 15422.0, 15435.0, 15440.0, 15425.0, 15423.0, 15439.0, 15432.0, 15423.0, 15428.0, 15438.0, 15448.0, 15468.0, 15471.0, 15455.0, 15455.0, 15467.0, 15452.0, 15472.0, 15457.0, 15451.0, 15446.0, 15453.0, 15437.0, 15433.0, 15433.0, 15452.0, 15467.0, 15449.0, 15458.0, 15453.0, 15468.0, 15471.0, 15459.0, 15469.0, 15450.0, 15468.0, 15461.0, 15462.0, 15450.0, 15444.0, 15448.0, 15459.0, 15468.0, 15451.0, 15450.0, 15452.0, 15454.0, 15467.0, 15467.0, 15457.0, 15438.0, 15451.0, 15445.0, 15469.0, 15486.0, 15471.0, 15474.0, 15461.0, 15459.0, 15458.0, 15457.0, 15458.0, 15457.0, 15463.0, 15481.0, 15475.0, 15477.0, 15455.0, 15471.0, 15451.0, 15462.0, 15450.0, 15451.0, 15429.0, 15422.0, 15420.0, 15431.0, 15421.0, 15408.0, 15427.0, 15431.0, 15444.0, 15425.0, 15429.0, 15435.0, 15457.0, 15448.0, 15425.0, 15436.0, 15421.0, 15439.0, 15430.0, 15443.0, 15459.0, 15452.0, 15438.0, 15441.0, 15451.0, 15463.0, 15454.0, 15445.0, 15456.0, 15447.0, 15430.0, 15482.0, 15470.0, 15451.0, 15439.0, 15437.0, 15423.0, 15426.0, 15439.0, 15442.0, 15448.0, 15448.0, 15429.0, 15446.0, 15441.0, 15440.0, 15430.0, 15418.0, 15435.0, 15432.0],
      "WindowWidth": [43708.0, 43701.0, 43774.0, 43803.0, 43667.0, 43561.0, 43547.0, 43570.0, 43603.0, 43602.0, 43586.0, 43582.0, 43607.0, 43631.0, 43666.0, 43674.0, 43608.0, 43575.0, 43568.0, 43580.0, 43704.0, 43742.0, 43646.0, 43566.0, 43569.0, 43617.0, 43574.0, 43581.0, 43554.0, 43559.0, 43598.0, 43613.0, 43620.0, 43628.0, 43713.0, 43748.0, 43625.0, 43583.0, 43513.0, 43492.0, 43595.0, 43632.0, 43665.0, 43638.0, 43660.0, 43675.0, 43661.0, 43628.0, 43604.0, 43626.0, 43644.0, 43713.0, 43713.0, 43680.0, 43611.0, 43551.0, 43539.0, 43537.0, 43543.0, 43559.0, 43577.0, 43608.0, 43647.0, 43653.0, 43687.0, 43651.0, 43609.0, 43600.0, 43611.0, 43574.0, 43565.0, 43596.0, 43611.0, 43580.0, 43523.0, 43538.0, 43514.0, 43584.0, 43624.0, 43660.0, 43650.0, 43606.0, 43586.0, 43581.0, 43551.0, 43539.0, 43591.0, 43632.0, 43675.0, 43673.0, 43666.0, 43731.0, 43739.0, 43693.0, 43668.0, 43664.0, 43646.0, 43582.0, 43565.0, 43535.0, 43553.0, 43560.0, 43563.0, 43555.0, 43596.0, 43664.0, 43729.0, 43687.0, 43616.0, 43601.0, 43614.0, 43628.0, 43565.0, 43578.0, 43570.0, 43578.0, 43627.0, 43581.0, 43619.0, 43677.0, 43710.0, 43656.0, 43581.0, 43607.0, 43644.0, 43671.0, 43662.0, 43661.0, 43684.0, 43666.0, 43685.0, 43688.0, 43604.0, 43551.0, 43473.0, 43551.0, 43632.0, 43696.0, 43677.0, 43645.0, 43582.0, 43568.0, 43642.0, 43668.0, 43641.0, 43651.0, 43664.0, 43733.0, 43797.0, 43827.0, 43714.0, 43660.0, 43537.0, 43520.0, 43602.0, 43596.0, 43432.0, 43572.0, 43624.0, 43671.0, 43792.0, 43764.0, 43550.0, 43632.0, 43498.0, 43552.0, 43518.0, 43653.0, 43672.0, 43341.0, 43660.0, 43614.0, 43566.0, 43623.0, 43684.0, 43686.0, 43671.0, 43609.0, 43613.0, 43611.0, 43672.0, 43604.0, 43564.0, 43608.0, 43674.0, 43750.0, 43824.0, 43880.0, 43786.0, 43648.0, 43650.0, 43670.0, 43710.0, 43748.0, 43669.0, 43619.0, 43560.0, 43536.0, 43478.0, 43715.0, 43644.0, 43592.0, 43553.0, 43551.0, 43548.0, 43581.0, 43608.0, 43597.0, 43619.0, 43589.0, 43627.0, 43645.0, 43654.0, 43666.0, 43625.0, 43652.0, 43701.0, 43700.0]
    },
    "slices": {}
  }
}