{
  "AcquisitionMatrixPE": 116,
  "AcquisitionNumber": 1,
  "AcquisitionTime": "15:42:26.370000",
  "BandwidthPerPixelPhaseEncode": 18.539,
  "BaseResolution": 116,
  "BodyPartExamined": "HEAD",
  "ConsistencyInfo": "N4_VD13D_LATEST_20130810",
  "ConversionSoftware": "dcm2niix",
  "ConversionSoftwareVersion": "v1.0.20190410  (JP2:OpenJPEG) (JP-LS:CharLS) GCC5.5.0",
  "DerivedVendorReportedEchoSpacing": 0.000930006,
  "DeviceSerialNumber": "66014",
  "DwellTime": 3e-06,
  "EchoTime": 0.03,
  "EchoTrainLength": 50,
  "EffectiveEchoSpacing": 0.000465003,
  "FlipAngle": 81,
  "ImageComments": "Unaliased_MB3_PE4",
  "ImageOrientationPatientDICOM": [0.99882, -0.0262111, 0.0408787, 0.0313892, 0.990797, -0.131665],
  "ImageType": [
    "ORIGINAL",
    "PRIMARY",
    "M",
    "MB",
    "ND",
    "MOSAIC"
],
  "ImagingFrequency": 123.261,
  "InPlanePhaseEncodingDirectionDICOM": "COL",
  "InstitutionAddress": "Yiheyuan_Road_5_Beijing_Haidian_CN_100871",
  "InstitutionName": "Peking_University",
  "InstitutionalDepartmentName": "Department",
  "MRAcquisitionType": "2D",
  "MagneticFieldStrength": 3,
  "Manufacturer": "Siemens",
  "ManufacturersModelName": "Prisma",
  "Modality": "MR",
  "MultibandAccelerationFactor": 3,
  "ParallelReductionFactorInPlane": 2,
  "PartialFourier": 0.875,
  "PatientPosition": "HFS",
  "PercentPhaseFOV": 100,
  "PhaseEncodingDirection": "j-",
  "PhaseEncodingSteps": 101,
  "PhaseResolution": 1,
  "PixelBandwidth": 1435,
  "ProcedureStepDescription": "Research_Projects_64CH",
  "ProtocolName": "mbep2d_bold_MB3_learn6",
  "PulseSequenceDetails": "%CustomerSeq%_cmrr_mbep2d_bold",
  "ReceiveCoilActiveElements": "HC1-7",
  "ReceiveCoilName": "HeadNeck_64",
  "ReconMatrixPE": 116,
  "RefLinesPE": 44,
  "RepetitionTime": 2,
  "SAR": 0.0629103,
  "ScanOptions": "PFP_FS",
  "ScanningSequence": "EP",
  "SequenceName": "epfid2d1_116",
  "SequenceVariant": "SK_SS",
  "SeriesDescription": "mbep2d_bold_MB3_learn6",
  "SeriesNumber": 11,
  "ShimSetting": [-3450, -2116, -1932, 457, 21, -220, 62, -10],
  "SliceThickness": 1.9,
  "SliceTiming": [0, 0.9075, 1.815, 0.7425, 1.65, 0.5775, 1.485, 0.4125, 1.32, 0.2475, 1.155, 0.0825, 0.99, 1.8975, 0.825, 1.7325, 0.66, 1.5675, 0.495, 1.4025, 0.33, 1.2375, 0.165, 1.0725, 0, 0.9075, 1.815, 0.7425, 1.65, 0.5775, 1.485, 0.4125, 1.32, 0.2475, 1.155, 0.0825, 0.99, 1.8975, 0.825, 1.7325, 0.66, 1.5675, 0.495, 1.4025, 0.33, 1.2375, 0.165, 1.0725, 0, 0.9075, 1.815, 0.7425, 1.65, 0.5775, 1.485, 0.4125, 1.32, 0.2475, 1.155, 0.0825, 0.99, 1.8975, 0.825, 1.7325, 0.66, 1.5675, 0.495, 1.4025, 0.33, 1.2375, 0.165, 1.0725],
  "SoftwareVersions": "syngo_MR_D13D",
  "SpacingBetweenSlices": 1.9,
  "StationName": "AWP66014",
  "TaskName": "updating",
  "TotalReadoutTime": 0.0534753,
  "TxRefAmp": 216.085,
  "WipMemBlock": "e796b82a-8951-4f89-bac7-706074dd6b8d||Sequence: vd13d/master r/0735857; Nov 19 2014 09:21:40 by eja",
  "dcmmeta_affine": [
    [-1.8943142890930176, 0.05953129380941391, 0.0703977569937706, 103.78595733642578],
    [0.04971073195338249, 1.8790980577468872, -0.25230640172958374, -96.73758697509766],
    [0.07752864062786102, 0.24970953166484833, 1.8818570375442505, -89.73324584960938],
    [0.0, 0.0, 0.0, 1.0]
],
  "dcmmeta_reorient_transform": [
    [0.0, -1.0, 0.0, 115.0],
    [1.0, 0.0, 0.0, 0.0],
    [0.0, 0.0, 1.0, 0.0],
    [0.0, 0.0, 0.0, 1.0]
],
  "dcmmeta_shape": [116, 116, 72, 218],
  "dcmmeta_slice_dim": 2,
  "dcmmeta_version": 0.6,
  "global": {
    "const": {
      "AcquisitionMatrix": [116, 0, 0, 116],
      "AngioFlag": "N",
      "BitsAllocated": 16,
      "BitsStored": 16,
      "BodyPartExamined": "HEAD",
      "Columns": 1044,
      "EchoNumbers": 1,
      "EchoTime": 30.0,
      "EchoTrainLength": 50,
      "FlipAngle": 81.0,
      "HighBit": 15,
      "ImageOrientationPatient": [0.99882025732593, -0.0262111124896, 0.04087873698427, 0.03138922721502, 0.99079717304897, -0.1316650230434],
      "ImagePositionPatient": [-1017.2164069418, -968.19442966181, 18.875280082812],
      "ImageType": [
        "ORIGINAL",
        "PRIMARY",
        "M",
        "MB",
        "ND",
        "MOSAIC"
],
      "ImagedNucleus": "1H",
      "ImagingFrequency": 123.26059,
      "InPlanePhaseEncodingDirection": "COL",
      "LargestImagePixelValue": 65535,
      "MRAcquisitionType": "2D",
      "MagneticFieldStrength": 3.0,
      "Manufacturer": "SIEMENS",
      "ManufacturerModelName": "Prisma",
      "Modality": "MR",
      "NumberOfAverages": 1.0,
      "NumberOfPhaseEncodingSteps": 101,
      "PercentPhaseFieldOfView": 100.0,
      "PercentSampling": 100.0,
      "PerformedProcedureStepStartTime": "143507.591000",
      "PhotometricInterpretation": "MONOCHROME2",
      "PixelBandwidth": 1435.0,
      "PixelRepresentation": 0,
      "PixelSpacing": [1.8965517282486, 1.8965517282486],
      "ProtocolName": "mbep2d_bold_MB3_learn6",
      "RepetitionTime": 2000.0,
      "Rows": 1044,
      "SAR": 0.06291025065232,
      "SamplesPerPixel": 1,
      "ScanOptions": [
        "PFP",
        "FS"
],
      "ScanningSequence": "EP",
      "SequenceName": "epfid2d1_116",
      "SequenceVariant": [
        "SK",
        "SS"
],
      "SeriesDescription": "mbep2d_bold_MB3_learn6",
      "SeriesNumber": 11,
      "SeriesTime": "154241.324000",
      "SliceLocation": -72.184908183584,
      "SliceThickness": 1.8999999761581,
      "SmallestImagePixelValue": 0,
      "SoftwareVersions": "syngo MR D13D",
      "SpacingBetweenSlices": 1.9000000332859,
      "SpecificCharacterSet": "ISO_IR 100",
      "StudyID": "1",
      "StudyTime": "143507.515000",
      "TimeOfLastCalibration": ["123723.000000", "123723.000000"],
      "TransmitCoilName": "Body",
      "VariableFlipAngleFlag": "N",
      "WindowCenterWidthExplanation": "Algo1",
      "dBdt": 0.0},
    "slices": {}
  },
  "time": {
    "samples": {
      "AcquisitionNumber": [1, 2, 3, 4, 5, 6, 7, 8, 9, 10, 11, 12, 13, 14, 15, 16, 17, 18, 19, 20, 21, 22, 23, 24, 25, 26, 27, 28, 29, 30, 31, 32, 33, 34, 35, 36, 37, 38, 39, 40, 41, 42, 43, 44, 45, 46, 47, 48, 49, 50, 51, 52, 53, 54, 55, 56, 57, 58, 59, 60, 61, 62, 63, 64, 65, 66, 67, 68, 69, 70, 71, 72, 73, 74, 75, 76, 77, 78, 79, 80, 81, 82, 83, 84, 85, 86, 87, 88, 89, 90, 91, 92, 93, 94, 95, 96, 97, 98, 99, 100, 101, 102, 103, 104, 105, 106, 107, 108, 109, 110, 111, 112, 113, 114, 115, 116, 117, 118, 119, 120, 121, 122, 123, 124, 125, 126, 127, 128, 129, 130, 131, 132, 133, 134, 135, 136, 137, 138, 139, 140, 141, 142, 143, 144, 145, 146, 147, 148, 149, 150, 151, 152, 153, 154, 155, 156, 157, 158, 159, 160, 161, 162, 163, 164, 165, 166, 167, 168, 169, 170, 171, 172, 173, 174, 175, 176, 177, 178, 179, 180, 181, 182, 183, 184, 185, 186, 187, 188, 189, 190, 191, 192, 193, 194, 195, 196, 197, 198, 199, 200, 201, 202, 203, 204, 205, 206, 207, 208, 209, 210, 211, 212, 213, 214, 215, 216, 217, 218],
      "AcquisitionTime": ["154226.370000", "154228.370000", "154230.370000", "154232.370000", "154234.370000", "154236.370000", "154238.370000", "154240.370000", "154242.370000", "154244.370000", "154246.370000", "154248.370000", "154250.370000", "154252.370000", "154254.370000", "154256.370000", "154258.370000", "154300.370000", "154302.370000", "154304.370000", "154306.370000", "154308.370000", "154310.370000", "154312.370000", "154314.370000", "154316.370000", "154318.370000", "154320.370000", "154322.370000", "154324.370000", "154326.370000", "154328.370000", "154330.370000", "154332.370000", "154334.370000", "154336.370000", "154338.370000", "154340.370000", "154342.370000", "154344.370000", "154346.370000", "154348.370000", "154350.370000", "154352.370000", "154354.370000", "154356.370000", "154358.370000", "154400.370000", "154402.370000", "154404.370000", "154406.370000", "154408.370000", "154410.370000", "154412.370000", "154414.370000", "154416.370000", "154418.370000", "154420.370000", "154422.370000", "154424.370000", "154426.370000", "154428.370000", "154430.370000", "154432.370000", "154434.370000", "154436.372500", "154438.372500", "154440.372500", "154442.372500", "154444.372500", "154446.372500", "154448.372500", "154450.372500", "154452.372500", "154454.372500", "154456.372500", "154458.372500", "154500.372500", "154502.372500", "154504.372500", "154506.372500", "154508.372500", "154510.372500", "154512.372500", "154514.372500", "154516.372500", "154518.372500", "154520.372500", "154522.372500", "154524.372500", "154526.372500", "154528.372500", "154530.372500", "154532.372500", "154534.372500", "154536.372500", "154538.372500", "154540.372500", "154542.372500", "154544.372500", "154546.372500", "154548.372500", "154550.372500", "154552.372500", "154554.372500", "154556.372500", "154558.372500", "154600.372500", "154602.372500", "154604.372500", "154606.372500", "154608.372500", "154610.372500", "154612.372500", "154614.372500", "154616.372500", "154618.372500", "154620.372500", "154622.372500", "154624.372500", "154626.372500", "154628.372500", "154630.372500", "154632.372500", "154634.372500", "154636.372500", "154638.372500", "154640.372500", "154642.372500", "154644.372500", "154646.372500", "154648.372500", "154650.372500", "154652.372500", "154654.372500", "154656.372500", "154658.372500", "154700.372500", "154702.372500", "154704.372500", "154706.372500", "154708.372500", "154710.372500", "154712.372500", "154714.372500", "154716.372500", "154718.372500", "154720.372500", "154722.372500", "154724.372500", "154726.372500", "154728.372500", "154730.372500", "154732.372500", "154734.372500", "154736.372500", "154738.372500", "154740.372500", "154742.372500", "154744.372500", "154746.372500", "154748.372500", "154750.372500", "154752.372500", "154754.372500", "154756.372500", "154758.372500", "154800.372500", "154802.372500", "154804.372500", "154806.372500", "154808.372500", "154810.372500", "154812.372500", "154814.372500", "154816.372500", "154818.372500", "154820.372500", "154822.372500", "154824.372500", "154826.372500", "154828.372500", "154830.372500", "154832.372500", "154834.372500", "154836.372500", "154838.372500", "154840.372500", "154842.372500", "154844.372500", "154846.372500", "154848.372500", "154850.372500", "154852.372500", "154854.372500", "154856.372500", "154858.372500", "154900.372500", "154902.372500", "154904.372500", "154906.372500", "154908.372500", "154910.372500", "154912.372500", "154914.372500", "154916.372500", "154918.372500", "154920.372500", "154922.372500", "154924.372500", "154926.372500", "154928.372500", "154930.372500", "154932.372500", "154934.372500", "154936.372500", "154938.372500", "154940.372500"],
      "ContentTime": ["154241.329000", "154242.323000", "154243.323000", "154243.327000", "154244.322000", "154245.323000", "154245.327000", "154246.322000", "154247.321000", "154248.321000", "154249.322000", "154251.322000", "154253.323000", "154255.322000", "154257.323000", "154259.324000", "154301.324000", "154303.324000", "154305.321000", "154307.323000", "154309.323000", "154311.323000", "154313.323000", "154315.324000", "154317.324000", "154319.324000", "154321.323000", "154323.323000", "154325.323000", "154327.323000", "154329.323000", "154331.323000", "154333.324000", "154335.324000", "154337.324000", "154339.323000", "154341.323000", "154343.323000", "154345.323000", "154347.323000", "154349.323000", "154351.324000", "154353.324000", "154355.324000", "154357.323000", "154359.323000", "154401.323000", "154403.323000", "154405.323000", "154407.323000", "154409.324000", "154411.324000", "154413.325000", "154415.323000", "154417.323000", "154419.323000", "154421.323000", "154423.323000", "154425.324000", "154427.324000", "154429.324000", "154431.323000", "154433.323000", "154435.323000", "154437.323000", "154439.323000", "154441.323000", "154443.324000", "154445.325000", "154447.324000", "154449.323000", "154451.323000", "154453.323000", "154455.323000", "154457.323000", "154459.323000", "154501.324000", "154503.324000", "154505.324000", "154507.323000", "154509.323000", "154511.323000", "154513.323000", "154515.323000", "154517.323000", "154519.324000", "154521.324000", "154523.324000", "154525.323000", "154527.323000", "154529.323000", "154531.323000", "154533.323000", "154535.324000", "154537.324000", "154539.324000", "154541.323000", "154543.322000", "154545.323000", "154547.323000", "154549.324000", "154551.323000", "154553.324000", "154555.324000", "154557.325000", "154559.323000", "154601.323000", "154603.323000", "154605.323000", "154607.322000", "154609.323000", "154611.324000", "154613.324000", "154615.324000", "154617.323000", "154619.323000", "154621.323000", "154623.323000", "154625.323000", "154627.324000", "154629.324000", "154631.324000", "154633.324000", "154635.323000", "154637.323000", "154639.324000", "154641.322000", "154643.323000", "154645.324000", "154647.324000", "154649.325000", "154651.322000", "154653.323000", "154655.323000", "154657.323000", "154659.321000", "154701.323000", "154703.324000", "154705.324000", "154707.323000", "154709.322000", "154711.322000", "154713.323000", "154715.323000", "154717.323000", "154719.321000", "154721.322000", "154723.324000", "154725.324000", "154727.323000", "154729.323000", "154731.323000", "154733.323000", "154735.323000", "154737.334000", "154739.324000", "154741.324000", "154743.324000", "154745.323000", "154747.323000", "154749.324000", "154751.323000", "154753.323000", "154755.324000", "154757.324000", "154759.324000", "154801.323000", "154803.323000", "154805.323000", "154807.323000", "154809.323000", "154811.323000", "154813.323000", "154815.324000", "154817.324000", "154819.323000", "154821.323000", "154823.323000", "154825.323000", "154827.323000", "154829.323000", "154831.324000", "154833.324000", "154835.324000", "154837.322000", "154839.323000", "154841.323000", "154843.322000", "154845.323000", "154847.324000", "154849.324000", "154851.323000", "154853.324000", "154855.323000", "154857.323000", "154859.323000", "154901.323000", "154903.322000", "154905.324000", "154907.324000", "154909.324000", "154911.323000", "154913.323000", "154915.323000", "154917.323000", "154919.323000", "154921.323000", "154923.324000", "154925.324000", "154927.324000", "154929.323000", "154931.323000", "154933.323000", "154935.323000", "154937.323000", "154939.323000", "154941.323000", "154943.010000"],
      "InstanceCreationTime": ["154241.329000", "154242.323000", "154243.323000", "154243.327000", "154244.322000", "154245.323000", "154245.327000", "154246.322000", "154247.321000", "154248.321000", "154249.322000", "154251.322000", "154253.323000", "154255.322000", "154257.323000", "154259.324000", "154301.324000", "154303.324000", "154305.321000", "154307.323000", "154309.323000", "154311.323000", "154313.323000", "154315.324000", "154317.324000", "154319.324000", "154321.323000", "154323.323000", "154325.323000", "154327.323000", "154329.323000", "154331.323000", "154333.324000", "154335.324000", "154337.324000", "154339.323000", "154341.323000", "154343.323000", "154345.323000", "154347.323000", "154349.323000", "154351.324000", "154353.324000", "154355.324000", "154357.323000", "154359.323000", "154401.323000", "154403.323000", "154405.323000", "154407.323000", "154409.324000", "154411.324000", "154413.325000", "154415.323000", "154417.323000", "154419.323000", "154421.323000", "154423.323000", "154425.324000", "154427.324000", "154429.324000", "154431.323000", "154433.323000", "154435.323000", "154437.323000", "154439.323000", "154441.323000", "154443.324000", "154445.325000", "154447.324000", "154449.323000", "154451.323000", "154453.323000", "154455.323000", "154457.323000", "154459.323000", "154501.324000", "154503.324000", "154505.324000", "154507.323000", "154509.323000", "154511.323000", "154513.323000", "154515.323000", "154517.323000", "154519.324000", "154521.324000", "154523.324000", "154525.323000", "154527.323000", "154529.323000", "154531.323000", "154533.323000", "154535.324000", "154537.324000", "154539.324000", "154541.323000", "154543.322000", "154545.323000", "154547.323000", "154549.324000", "154551.323000", "154553.324000", "154555.324000", "154557.325000", "154559.323000", "154601.323000", "154603.323000", "154605.323000", "154607.322000", "154609.323000", "154611.324000", "154613.324000", "154615.324000", "154617.323000", "154619.323000", "154621.323000", "154623.323000", "154625.323000", "154627.324000", "154629.324000", "154631.324000", "154633.324000", "154635.323000", "154637.323000", "154639.324000", "154641.322000", "154643.323000", "154645.324000", "154647.324000", "154649.325000", "154651.322000", "154653.323000", "154655.323000", "154657.323000", "154659.321000", "154701.323000", "154703.324000", "154705.324000", "154707.323000", "154709.322000", "154711.322000", "154713.323000", "154715.323000", "154717.323000", "154719.321000", "154721.322000", "154723.324000", "154725.324000", "154727.323000", "154729.323000", "154731.323000", "154733.323000", "154735.323000", "154737.334000", "154739.324000", "154741.324000", "154743.324000", "154745.323000", "154747.323000", "154749.324000", "154751.323000", "154753.323000", "154755.324000", "154757.324000", "154759.324000", "154801.323000", "154803.323000", "154805.323000", "154807.323000", "154809.323000", "154811.323000", "154813.323000", "154815.324000", "154817.324000", "154819.323000", "154821.323000", "154823.323000", "154825.323000", "154827.323000", "154829.323000", "154831.324000", "154833.324000", "154835.324000", "154837.322000", "154839.323000", "154841.323000", "154843.322000", "154845.323000", "154847.324000", "154849.324000", "154851.323000", "154853.324000", "154855.323000", "154857.323000", "154859.323000", "154901.323000", "154903.322000", "154905.324000", "154907.324000", "154909.324000", "154911.323000", "154913.323000", "154915.323000", "154917.323000", "154919.323000", "154921.323000", "154923.324000", "154925.324000", "154927.324000", "154929.323000", "154931.323000", "154933.323000", "154935.323000", "154937.323000", "154939.323000", "154941.323000", "154943.010000"],
      "InstanceNumber": [1, 2, 3, 4, 5, 6, 7, 8, 9, 10, 11, 12, 13, 14, 15, 16, 17, 18, 19, 20, 21, 22, 23, 24, 25, 26, 27, 28, 29, 30, 31, 32, 33, 34, 35, 36, 37, 38, 39, 40, 41, 42, 43, 44, 45, 46, 47, 48, 49, 50, 51, 52, 53, 54, 55, 56, 57, 58, 59, 60, 61, 62, 63, 64, 65, 66, 67, 68, 69, 70, 71, 72, 73, 74, 75, 76, 77, 78, 79, 80, 81, 82, 83, 84, 85, 86, 87, 88, 89, 90, 91, 92, 93, 94, 95, 96, 97, 98, 99, 100, 101, 102, 103, 104, 105, 106, 107, 108, 109, 110, 111, 112, 113, 114, 115, 116, 117, 118, 119, 120, 121, 122, 123, 124, 125, 126, 127, 128, 129, 130, 131, 132, 133, 134, 135, 136, 137, 138, 139, 140, 141, 142, 143, 144, 145, 146, 147, 148, 149, 150, 151, 152, 153, 154, 155, 156, 157, 158, 159, 160, 161, 162, 163, 164, 165, 166, 167, 168, 169, 170, 171, 172, 173, 174, 175, 176, 177, 178, 179, 180, 181, 182, 183, 184, 185, 186, 187, 188, 189, 190, 191, 192, 193, 194, 195, 196, 197, 198, 199, 200, 201, 202, 203, 204, 205, 206, 207, 208, 209, 210, 211, 212, 213, 214, 215, 216, 217, 218],
      "WindowCenter": [15475.0, 15452.0, 15454.0, 15458.0, 15462.0, 15456.0, 15457.0, 15443.0, 15453.0, 15444.0, 15442.0, 15457.0, 15459.0, 15452.0, 15445.0, 15441.0, 15450.0, 15443.0, 15459.0, 15453.0, 15436.0, 15442.0, 15434.0, 15431.0, 15443.0, 15433.0, 15454.0, 15436.0, 15435.0, 15418.0, 15430.0, 15434.0, 15417.0, 15428.0, 15435.0, 15448.0, 15457.0, 15438.0, 15437.0, 15435.0, 15441.0, 15436.0, 15431.0, 15414.0, 15428.0, 15434.0, 15428.0, 15435.0, 15434.0, 15444.0, 15459.0, 15435.0, 15439.0, 15444.0, 15451.0, 15436.0, 15450.0, 15449.0, 15448.0, 15442.0, 15436.0, 15447.0, 15449.0, 15449.0, 15439.0, 15444.0, 15434.0, 15434.0, 15449.0, 15426.0, 15436.0, 15429.0, 15435.0, 15435.0, 15431.0, 15441.0, 15434.0, 15431.0, 15433.0, 15434.0, 15426.0, 15440.0, 15424.0, 15436.0, 15430.0, 15448.0, 15433.0, 15426.0, 15425.0, 15428.0, 15444.0, 15445.0, 15439.0, 15433.0, 15429.0, 15411.0, 15424.0, 15430.0, 15435.0, 15426.0, 15429.0, 15409.0, 15431.0, 15430.0, 15439.0, 15421.0, 15426.0, 15412.0, 15409.0, 15415.0, 15423.0, 15422.0, 15412.0, 15439.0, 15422.0, 15419.0, 15420.0, 15411.0, 15443.0, 15429.0, 15427.0, 15434.0, 15421.0, 15421.0, 15416.0, 15411.0, 15420.0, 15403.0, 15409.0, 15410.0, 15431.0, 15433.0, 15418.0, 15414.0, 15399.0, 15411.0, 15402.0, 15408.0, 15419.0, 15408.0, 15423.0, 15418.0, 15396.0, 15416.0, 15419.0, 15416.0, 15410.0, 15412.0, 15411.0, 15402.0, 15395.0, 15387.0, 15409.0, 15395.0, 15406.0, 15404.0, 15418.0, 15409.0, 15407.0, 15403.0, 15422.0, 15406.0, 15396.0, 15399.0, 15405.0, 15399.0, 15396.0, 15385.0, 15384.0, 15383.0, 15399.0, 15398.0, 15387.0, 15398.0, 15393.0, 15399.0, 15427.0, 15415.0, 15407.0, 15427.0, 15418.0, 15409.0, 15394.0, 15409.0, 15423.0, 15423.0, 15436.0, 15434.0, 15432.0, 15428.0, 15445.0, 15431.0, 15443.0, 15451.0, 15460.0, 15465.0, 15452.0, 15442.0, 15434.0, 15444.0, 15415.0, 15428.0, 15424.0, 15422.0, 15425.0, 15415.0, 15425.0, 15427.0, 15421.0, 15426.0, 15407.0, 15395.0, 15388.0, 15396.0, 15387.0, 15387.0, 15392.0, 15385.0],
      "WindowWidth": [43586.0, 43546.0, 43535.0, 43538.0, 43558.0, 43524.0, 43525.0, 43512.0, 43481.0, 43513.0, 43537.0, 43538.0, 43512.0, 43478.0, 43456.0, 43438.0, 43533.0, 43567.0, 43580.0, 43462.0, 43348.0, 43396.0, 43415.0, 43481.0, 43563.0, 43595.0, 43588.0, 43499.0, 43510.0, 43428.0, 43550.0, 43470.0, 43478.0, 43421.0, 43501.0, 43558.0, 43512.0, 43448.0, 43407.0, 43462.0, 43467.0, 43448.0, 43401.0, 43338.0, 43394.0, 43401.0, 43368.0, 43404.0, 43473.0, 43512.0, 43569.0, 43559.0, 43547.0, 43541.0, 43490.0, 43460.0, 43518.0, 43560.0, 43614.0, 43580.0, 43601.0, 43624.0, 43530.0, 43461.0, 43481.0, 43500.0, 43527.0, 43515.0, 43503.0, 43510.0, 43548.0, 43568.0, 43631.0, 43643.0, 43612.0, 43579.0, 43602.0, 43585.0, 43556.0, 43528.0, 43535.0, 43507.0, 43477.0, 43490.0, 43525.0, 43585.0, 43585.0, 43589.0, 43604.0, 43691.0, 43779.0, 43750.0, 43662.0, 43525.0, 43481.0, 43463.0, 43534.0, 43598.0, 43642.0, 43579.0, 43525.0, 43506.0, 43512.0, 43528.0, 43551.0, 43531.0, 43407.0, 43393.0, 43433.0, 43509.0, 43563.0, 43561.0, 43578.0, 43576.0, 43420.0, 43416.0, 43392.0, 43453.0, 43542.0, 43471.0, 43337.0, 43306.0, 43307.0, 43420.0, 43442.0, 43405.0, 43375.0, 43301.0, 43334.0, 43436.0, 43557.0, 43588.0, 43528.0, 43479.0, 43391.0, 43361.0, 43370.0, 43389.0, 43400.0, 43348.0, 43379.0, 43290.0, 43273.0, 43320.0, 43307.0, 43234.0, 43197.0, 43129.0, 43104.0, 43122.0, 43112.0, 43134.0, 43129.0, 43115.0, 43098.0, 43180.0, 43140.0, 43115.0, 43071.0, 43097.0, 43102.0, 43098.0, 43115.0, 43102.0, 43051.0, 43005.0, 42933.0, 42963.0, 42974.0, 43069.0, 43120.0, 43114.0, 43032.0, 43032.0, 43099.0, 43164.0, 43190.0, 43136.0, 43195.0, 43213.0, 43150.0, 43108.0, 43121.0, 43291.0, 43361.0, 43337.0, 43417.0, 43389.0, 43374.0, 43401.0, 43458.0, 43555.0, 43569.0, 43605.0, 43603.0, 43523.0, 43480.0, 43455.0, 43486.0, 43581.0, 43563.0, 43519.0, 43460.0, 43417.0, 43419.0, 43426.0, 43464.0, 43408.0, 43275.0, 43167.0, 43117.0, 43122.0, 43114.0, 43108.0, 43085.0, 43084.0, 43119.0, 43154.0]
    },
    "slices": {}
  }
}