{
  "AcquisitionMatrixPE": 116,
  "AcquisitionNumber": 1,
  "AcquisitionTime": "15:17:48.452500",
  "BandwidthPerPixelPhaseEncode": 18.539,
  "BaseResolution": 116,
  "BodyPartExamined": "HEAD",
  "ConsistencyInfo": "N4_VD13D_LATEST_20130810",
  "ConversionSoftware": "dcm2niix",
  "ConversionSoftwareVersion": "v1.0.20190410  (JP2:OpenJPEG) (JP-LS:CharLS) GCC5.5.0",
  "DerivedVendorReportedEchoSpacing": 0.000930006,
  "DeviceSerialNumber": "66014",
  "DwellTime": 3e-06,
  "EchoTime": 0.03,
  "EchoTrainLength": 50,
  "EffectiveEchoSpacing": 0.000465003,
  "FlipAngle": 81,
  "ImageComments": "Unaliased_MB3_PE4",
  "ImageOrientationPatientDICOM": [0.99882, -0.0262111, 0.0408787, 0.0313892, 0.990797, -0.131665],
  "ImageType": [
    "ORIGINAL",
    "PRIMARY",
    "M",
    "MB",
    "ND",
    "MOSAIC"
],
  "ImagingFrequency": 123.261,
  "InPlanePhaseEncodingDirectionDICOM": "COL",
  "InstitutionAddress": "Yiheyuan_Road_5_Beijing_Haidian_CN_100871",
  "InstitutionName": "Peking_University",
  "InstitutionalDepartmentName": "Department",
  "MRAcquisitionType": "2D",
  "MagneticFieldStrength": 3,
  "Manufacturer": "Siemens",
  "ManufacturersModelName": "Prisma",
  "Modality": "MR",
  "MultibandAccelerationFactor": 3,
  "ParallelReductionFactorInPlane": 2,
  "PartialFourier": 0.875,
  "PatientPosition": "HFS",
  "PercentPhaseFOV": 100,
  "PhaseEncodingDirection": "j-",
  "PhaseEncodingSteps": 101,
  "PhaseResolution": 1,
  "PixelBandwidth": 1435,
  "ProcedureStepDescription": "Research_Projects_64CH",
  "ProtocolName": "mbep2d_bold_MB3_learn3",
  "PulseSequenceDetails": "%CustomerSeq%_cmrr_mbep2d_bold",
  "ReceiveCoilActiveElements": "HC1-7",
  "ReceiveCoilName": "HeadNeck_64",
  "ReconMatrixPE": 116,
  "RefLinesPE": 44,
  "RepetitionTime": 2,
  "SAR": 0.0629103,
  "ScanOptions": "PFP_FS",
  "ScanningSequence": "EP",
  "SequenceName": "epfid2d1_116",
  "SequenceVariant": "SK_SS",
  "SeriesDescription": "mbep2d_bold_MB3_learn3",
  "SeriesNumber": 8,
  "ShimSetting": [-3450, -2116, -1932, 457, 21, -220, 62, -10],
  "SliceThickness": 1.9,
  "SliceTiming": [0, 0.9075, 1.815, 0.7425, 1.65, 0.5775, 1.485, 0.4125, 1.32, 0.2475, 1.155, 0.0825, 0.99, 1.8975, 0.825, 1.7325, 0.66, 1.5675, 0.495, 1.4025, 0.33, 1.2375, 0.165, 1.0725, 0, 0.9075, 1.815, 0.7425, 1.65, 0.5775, 1.485, 0.4125, 1.32, 0.2475, 1.155, 0.0825, 0.99, 1.8975, 0.825, 1.7325, 0.66, 1.5675, 0.495, 1.4025, 0.33, 1.2375, 0.165, 1.0725, 0, 0.9075, 1.815, 0.7425, 1.65, 0.5775, 1.485, 0.4125, 1.32, 0.2475, 1.155, 0.0825, 0.99, 1.8975, 0.825, 1.7325, 0.66, 1.5675, 0.495, 1.4025, 0.33, 1.2375, 0.165, 1.0725],
  "SoftwareVersions": "syngo_MR_D13D",
  "SpacingBetweenSlices": 1.9,
  "StationName": "AWP66014",
  "TaskName": "updating",
  "TotalReadoutTime": 0.0534753,
  "TxRefAmp": 216.085,
  "WipMemBlock": "91968f22-504e-4b34-8c30-d35a6e3ef8bf||Sequence: vd13d/master r/0735857; Nov 19 2014 09:21:40 by eja",
  "dcmmeta_affine": [
    [-1.8943142890930176, 0.05953129380941391, 0.0703977569937706, 103.78595733642578],
    [0.04971073195338249, 1.8790980577468872, -0.25230640172958374, -96.73758697509766],
    [0.07752864062786102, 0.24970953166484833, 1.8818570375442505, -89.73324584960938],
    [0.0, 0.0, 0.0, 1.0]
],
  "dcmmeta_reorient_transform": [
    [0.0, -1.0, 0.0, 115.0],
    [1.0, 0.0, 0.0, 0.0],
    [0.0, 0.0, 1.0, 0.0],
    [0.0, 0.0, 0.0, 1.0]
],
  "dcmmeta_shape": [116, 116, 72, 218],
  "dcmmeta_slice_dim": 2,
  "dcmmeta_version": 0.6,
  "global": {
    "const": {
      "AcquisitionMatrix": [116, 0, 0, 116],
      "AngioFlag": "N",
      "BitsAllocated": 16,
      "BitsStored": 16,
      "BodyPartExamined": "HEAD",
      "Columns": 1044,
      "EchoNumbers": 1,
      "EchoTime": 30.0,
      "EchoTrainLength": 50,
      "FlipAngle": 81.0,
      "HighBit": 15,
      "ImageOrientationPatient": [0.99882025732593, -0.0262111124896, 0.04087873698427, 0.03138922721502, 0.99079717304897, -0.1316650230434],
      "ImagePositionPatient": [-1017.2164069418, -968.19442966181, 18.875280082812],
      "ImageType": [
        "ORIGINAL",
        "PRIMARY",
        "M",
        "MB",
        "ND",
        "MOSAIC"
],
      "ImagedNucleus": "1H",
      "ImagingFrequency": 123.260583,
      "InPlanePhaseEncodingDirection": "COL",
      "LargestImagePixelValue": 65535,
      "MRAcquisitionType": "2D",
      "MagneticFieldStrength": 3.0,
      "Manufacturer": "SIEMENS",
      "ManufacturerModelName": "Prisma",
      "Modality": "MR",
      "NumberOfAverages": 1.0,
      "NumberOfPhaseEncodingSteps": 101,
      "PercentPhaseFieldOfView": 100.0,
      "PercentSampling": 100.0,
      "PerformedProcedureStepStartTime": "143507.591000",
      "PhotometricInterpretation": "MONOCHROME2",
      "PixelBandwidth": 1435.0,
      "PixelRepresentation": 0,
      "PixelSpacing": [1.8965517282486, 1.8965517282486],
      "ProtocolName": "mbep2d_bold_MB3_learn3",
      "RepetitionTime": 2000.0,
      "Rows": 1044,
      "SAR": 0.06291025065232,
      "SamplesPerPixel": 1,
      "ScanOptions": [
        "PFP",
        "FS"
],
      "ScanningSequence": "EP",
      "SequenceName": "epfid2d1_116",
      "SequenceVariant": [
        "SK",
        "SS"
],
      "SeriesDescription": "mbep2d_bold_MB3_learn3",
      "SeriesNumber": 8,
      "SeriesTime": "151804.052000",
      "SliceLocation": -72.184908183584,
      "SliceThickness": 1.8999999761581,
      "SmallestImagePixelValue": 0,
      "SoftwareVersions": "syngo MR D13D",
      "SpacingBetweenSlices": 1.9000000332859,
      "SpecificCharacterSet": "ISO_IR 100",
      "StudyID": "1",
      "StudyTime": "143507.515000",
      "TimeOfLastCalibration": ["123723.000000", "123723.000000"],
      "TransmitCoilName": "Body",
      "VariableFlipAngleFlag": "N",
      "WindowCenterWidthExplanation": "Algo1",
      "dBdt": 0.0},
    "slices": {}
  },
  "time": {
    "samples": {
      "AcquisitionNumber": [1, 2, 3, 4, 5, 6, 7, 8, 9, 10, 11, 12, 13, 14, 15, 16, 17, 18, 19, 20, 21, 22, 23, 24, 25, 26, 27, 28, 29, 30, 31, 32, 33, 34, 35, 36, 37, 38, 39, 40, 41, 42, 43, 44, 45, 46, 47, 48, 49, 50, 51, 52, 53, 54, 55, 56, 57, 58, 59, 60, 61, 62, 63, 64, 65, 66, 67, 68, 69, 70, 71, 72, 73, 74, 75, 76, 77, 78, 79, 80, 81, 82, 83, 84, 85, 86, 87, 88, 89, 90, 91, 92, 93, 94, 95, 96, 97, 98, 99, 100, 101, 102, 103, 104, 105, 106, 107, 108, 109, 110, 111, 112, 113, 114, 115, 116, 117, 118, 119, 120, 121, 122, 123, 124, 125, 126, 127, 128, 129, 130, 131, 132, 133, 134, 135, 136, 137, 138, 139, 140, 141, 142, 143, 144, 145, 146, 147, 148, 149, 150, 151, 152, 153, 154, 155, 156, 157, 158, 159, 160, 161, 162, 163, 164, 165, 166, 167, 168, 169, 170, 171, 172, 173, 174, 175, 176, 177, 178, 179, 180, 181, 182, 183, 184, 185, 186, 187, 188, 189, 190, 191, 192, 193, 194, 195, 196, 197, 198, 199, 200, 201, 202, 203, 204, 205, 206, 207, 208, 209, 210, 211, 212, 213, 214, 215, 216, 217, 218],
      "AcquisitionTime": ["151748.452500", "151750.452500", "151752.452500", "151754.452500", "151756.452500", "151758.452500", "151800.452500", "151802.452500", "151804.452500", "151806.452500", "151808.452500", "151810.452500", "151812.452500", "151814.452500", "151816.452500", "151818.452500", "151820.452500", "151822.452500", "151824.452500", "151826.452500", "151828.452500", "151830.452500", "151832.452500", "151834.452500", "151836.452500", "151838.452500", "151840.452500", "151842.452500", "151844.452500", "151846.452500", "151848.452500", "151850.452500", "151852.452500", "151854.452500", "151856.452500", "151858.452500", "151900.452500", "151902.452500", "151904.452500", "151906.452500", "151908.452500", "151910.452500", "151912.452500", "151914.452500", "151916.452500", "151918.452500", "151920.452500", "151922.452500", "151924.452500", "151926.452500", "151928.452500", "151930.452500", "151932.452500", "151934.452500", "151936.452500", "151938.452500", "151940.452500", "151942.452500", "151944.452500", "151946.452500", "151948.452500", "151950.452500", "151952.452500", "151954.452500", "151956.452500", "151958.452500", "152000.452500", "152002.452500", "152004.452500", "152006.452500", "152008.452500", "152010.452500", "152012.452500", "152014.452500", "152016.452500", "152018.452500", "152020.452500", "152022.452500", "152024.452500", "152026.452500", "152028.452500", "152030.452500", "152032.452500", "152034.452500", "152036.452500", "152038.452500", "152040.452500", "152042.452500", "152044.452500", "152046.452500", "152048.452500", "152050.452500", "152052.452500", "152054.452500", "152056.452500", "152058.452500", "152100.452500", "152102.452500", "152104.452500", "152106.452500", "152108.452500", "152110.452500", "152112.452500", "152114.452500", "152116.452500", "152118.452500", "152120.452500", "152122.452500", "152124.452500", "152126.452500", "152128.452500", "152130.452500", "152132.452500", "152134.452500", "152136.452500", "152138.452500", "152140.452500", "152142.452500", "152144.452500", "152146.452500", "152148.452500", "152150.452500", "152152.452500", "152154.452500", "152156.452500", "152158.452500", "152200.452500", "152202.452500", "152204.452500", "152206.452500", "152208.452500", "152210.452500", "152212.455000", "152214.455000", "152216.455000", "152218.455000", "152220.455000", "152222.455000", "152224.455000", "152226.455000", "152228.455000", "152230.455000", "152232.455000", "152234.455000", "152236.455000", "152238.455000", "152240.455000", "152242.455000", "152244.455000", "152246.455000", "152248.455000", "152250.455000", "152252.455000", "152254.455000", "152256.455000", "152258.455000", "152300.455000", "152302.455000", "152304.455000", "152306.455000", "152308.455000", "152310.455000", "152312.455000", "152314.455000", "152316.455000", "152318.455000", "152320.455000", "152322.455000", "152324.455000", "152326.455000", "152328.455000", "152330.455000", "152332.455000", "152334.455000", "152336.455000", "152338.455000", "152340.455000", "152342.455000", "152344.455000", "152346.455000", "152348.455000", "152350.455000", "152352.455000", "152354.455000", "152356.455000", "152358.455000", "152400.455000", "152402.455000", "152404.455000", "152406.455000", "152408.455000", "152410.455000", "152412.455000", "152414.455000", "152416.455000", "152418.455000", "152420.455000", "152422.455000", "152424.455000", "152426.455000", "152428.455000", "152430.455000", "152432.455000", "152434.455000", "152436.455000", "152438.455000", "152440.455000", "152442.455000", "152444.455000", "152446.455000", "152448.455000", "152450.455000", "152452.455000", "152454.455000", "152456.455000", "152458.455000", "152500.455000", "152502.455000"],
      "ContentTime": ["151804.058000", "151805.051000", "151806.051000", "151806.055000", "151807.050000", "151808.050000", "151809.050000", "151809.054000", "151810.050000", "151811.051000", "151812.051000", "151813.552000", "151815.552000", "151817.552000", "151819.552000", "151821.551000", "151823.552000", "151825.553000", "151827.551000", "151829.552000", "151831.552000", "151833.552000", "151835.552000", "151837.551000", "151839.552000", "151841.553000", "151843.551000", "151845.551000", "151847.552000", "151849.552000", "151851.552000", "151853.552000", "151855.552000", "151857.552000", "151859.552000", "151901.551000", "151903.551000", "151905.552000", "151907.550000", "151909.572000", "151911.552000", "151913.551000", "151915.552000", "151917.552000", "151919.551000", "151921.552000", "151923.552000", "151925.551000", "151927.552000", "151929.552000", "151931.552000", "151933.552000", "151935.552000", "151937.551000", "151939.552000", "151941.552000", "151943.552000", "151945.552000", "151947.553000", "151949.552000", "151951.551000", "151953.551000", "151955.551000", "151957.552000", "151959.552000", "152001.552000", "152003.553000", "152005.552000", "152007.552000", "152009.552000", "152011.551000", "152013.551000", "152015.552000", "152017.552000", "152019.552000", "152021.552000", "152023.552000", "152025.553000", "152027.552000", "152029.550000", "152031.552000", "152033.553000", "152035.552000", "152037.552000", "152039.553000", "152041.552000", "152043.552000", "152045.553000", "152047.551000", "152049.552000", "152051.552000", "152053.552000", "152055.552000", "152057.552000", "152059.552000", "152101.552000", "152103.551000", "152105.551000", "152107.552000", "152109.552000", "152111.552000", "152113.552000", "152115.552000", "152117.551000", "152119.552000", "152121.552000", "152123.551000", "152125.552000", "152127.552000", "152129.552000", "152131.552000", "152133.552000", "152135.552000", "152137.553000", "152139.551000", "152141.552000", "152143.552000", "152145.552000", "152147.551000", "152149.552000", "152151.552000", "152153.552000", "152155.552000", "152157.551000", "152159.552000", "152201.552000", "152203.553000", "152205.552000", "152207.552000", "152209.552000", "152211.552000", "152213.551000", "152215.551000", "152217.552000", "152219.552000", "152221.552000", "152223.552000", "152225.552000", "152227.552000", "152229.552000", "152231.551000", "152233.551000", "152235.552000", "152237.552000", "152239.552000", "152241.552000", "152243.551000", "152245.552000", "152247.552000", "152249.551000", "152251.552000", "152253.552000", "152255.552000", "152257.553000", "152259.552000", "152301.552000", "152303.553000", "152305.552000", "152307.551000", "152309.552000", "152311.552000", "152313.552000", "152315.552000", "152317.552000", "152319.552000", "152321.552000", "152323.551000", "152325.551000", "152327.552000", "152329.552000", "152331.552000", "152333.552000", "152335.552000", "152337.553000", "152339.552000", "152341.551000", "152343.552000", "152345.552000", "152347.552000", "152349.552000", "152351.552000", "152353.552000", "152355.552000", "152357.552000", "152359.551000", "152401.553000", "152403.552000", "152405.564000", "152407.552000", "152409.552000", "152411.552000", "152413.552000", "152415.553000", "152417.551000", "152419.551000", "152421.551000", "152423.552000", "152425.552000", "152427.552000", "152429.552000", "152431.552000", "152433.551000", "152435.551000", "152437.553000", "152439.552000", "152441.552000", "152443.552000", "152445.552000", "152447.552000", "152449.552000", "152451.551000", "152453.552000", "152455.552000", "152457.553000", "152459.552000", "152501.552000", "152503.552000", "152505.402000"],
      "InstanceCreationTime": ["151804.058000", "151805.051000", "151806.051000", "151806.055000", "151807.050000", "151808.050000", "151809.050000", "151809.054000", "151810.050000", "151811.051000", "151812.051000", "151813.552000", "151815.552000", "151817.552000", "151819.552000", "151821.551000", "151823.552000", "151825.553000", "151827.551000", "151829.552000", "151831.552000", "151833.552000", "151835.552000", "151837.551000", "151839.552000", "151841.553000", "151843.551000", "151845.551000", "151847.552000", "151849.552000", "151851.552000", "151853.552000", "151855.552000", "151857.552000", "151859.552000", "151901.551000", "151903.551000", "151905.552000", "151907.550000", "151909.572000", "151911.552000", "151913.551000", "151915.552000", "151917.552000", "151919.551000", "151921.552000", "151923.552000", "151925.551000", "151927.552000", "151929.552000", "151931.552000", "151933.552000", "151935.552000", "151937.551000", "151939.552000", "151941.552000", "151943.552000", "151945.552000", "151947.553000", "151949.552000", "151951.551000", "151953.551000", "151955.551000", "151957.552000", "151959.552000", "152001.552000", "152003.553000", "152005.552000", "152007.552000", "152009.552000", "152011.551000", "152013.551000", "152015.552000", "152017.552000", "152019.552000", "152021.552000", "152023.552000", "152025.553000", "152027.552000", "152029.550000", "152031.552000", "152033.553000", "152035.552000", "152037.552000", "152039.553000", "152041.552000", "152043.552000", "152045.553000", "152047.551000", "152049.552000", "152051.552000", "152053.552000", "152055.552000", "152057.552000", "152059.552000", "152101.552000", "152103.551000", "152105.551000", "152107.552000", "152109.552000", "152111.552000", "152113.552000", "152115.552000", "152117.551000", "152119.552000", "152121.552000", "152123.551000", "152125.552000", "152127.552000", "152129.552000", "152131.552000", "152133.552000", "152135.552000", "152137.553000", "152139.551000", "152141.552000", "152143.552000", "152145.552000", "152147.551000", "152149.552000", "152151.552000", "152153.552000", "152155.552000", "152157.551000", "152159.552000", "152201.552000", "152203.553000", "152205.552000", "152207.552000", "152209.552000", "152211.552000", "152213.551000", "152215.551000", "152217.552000", "152219.552000", "152221.552000", "152223.552000", "152225.552000", "152227.552000", "152229.552000", "152231.551000", "152233.551000", "152235.552000", "152237.552000", "152239.552000", "152241.552000", "152243.551000", "152245.552000", "152247.552000", "152249.551000", "152251.552000", "152253.552000", "152255.552000", "152257.553000", "152259.552000", "152301.552000", "152303.553000", "152305.552000", "152307.551000", "152309.552000", "152311.552000", "152313.552000", "152315.552000", "152317.552000", "152319.552000", "152321.552000", "152323.551000", "152325.551000", "152327.552000", "152329.552000", "152331.552000", "152333.552000", "152335.552000", "152337.553000", "152339.552000", "152341.551000", "152343.552000", "152345.552000", "152347.552000", "152349.552000", "152351.552000", "152353.552000", "152355.552000", "152357.552000", "152359.551000", "152401.553000", "152403.552000", "152405.564000", "152407.552000", "152409.552000", "152411.552000", "152413.552000", "152415.553000", "152417.551000", "152419.551000", "152421.551000", "152423.552000", "152425.552000", "152427.552000", "152429.552000", "152431.552000", "152433.551000", "152435.551000", "152437.553000", "152439.552000", "152441.552000", "152443.552000", "152445.552000", "152447.552000", "152449.552000", "152451.551000", "152453.552000", "152455.552000", "152457.553000", "152459.552000", "152501.552000", "152503.552000", "152505.402000"],
      "InstanceNumber": [1, 2, 3, 4, 5, 6, 7, 8, 9, 10, 11, 12, 13, 14, 15, 16, 17, 18, 19, 20, 21, 22, 23, 24, 25, 26, 27, 28, 29, 30, 31, 32, 33, 34, 35, 36, 37, 38, 39, 40, 41, 42, 43, 44, 45, 46, 47, 48, 49, 50, 51, 52, 53, 54, 55, 56, 57, 58, 59, 60, 61, 62, 63, 64, 65, 66, 67, 68, 69, 70, 71, 72, 73, 74, 75, 76, 77, 78, 79, 80, 81, 82, 83, 84, 85, 86, 87, 88, 89, 90, 91, 92, 93, 94, 95, 96, 97, 98, 99, 100, 101, 102, 103, 104, 105, 106, 107, 108, 109, 110, 111, 112, 113, 114, 115, 116, 117, 118, 119, 120, 121, 122, 123, 124, 125, 126, 127, 128, 129, 130, 131, 132, 133, 134, 135, 136, 137, 138, 139, 140, 141, 142, 143, 144, 145, 146, 147, 148, 149, 150, 151, 152, 153, 154, 155, 156, 157, 158, 159, 160, 161, 162, 163, 164, 165, 166, 167, 168, 169, 170, 171, 172, 173, 174, 175, 176, 177, 178, 179, 180, 181, 182, 183, 184, 185, 186, 187, 188, 189, 190, 191, 192, 193, 194, 195, 196, 197, 198, 199, 200, 201, 202, 203, 204, 205, 206, 207, 208, 209, 210, 211, 212, 213, 214, 215, 216, 217, 218],
      "WindowCenter": [15465.0, 15461.0, 15447.0, 15448.0, 15418.0, 15422.0, 15407.0, 15420.0, 15427.0, 15404.0, 15415.0, 15431.0, 15421.0, 15436.0, 15413.0, 15417.0, 15424.0, 15426.0, 15432.0, 15407.0, 15426.0, 15454.0, 15456.0, 15440.0, 15440.0, 15435.0, 15413.0, 15431.0, 15422.0, 15426.0, 15431.0, 15422.0, 15415.0, 15410.0, 15420.0, 15411.0, 15414.0, 15416.0, 15416.0, 15438.0, 15421.0, 15414.0, 15411.0, 15432.0, 15417.0, 15416.0, 15404.0, 15403.0, 15404.0, 15412.0, 15430.0, 15427.0, 15416.0, 15418.0, 15407.0, 15422.0, 15417.0, 15435.0, 15428.0, 15440.0, 15437.0, 15439.0, 15446.0, 15437.0, 15450.0, 15443.0, 15444.0, 15446.0, 15443.0, 15457.0, 15445.0, 15432.0, 15427.0, 15425.0, 15418.0, 15423.0, 15430.0, 15437.0, 15413.0, 15435.0, 15426.0, 15422.0, 15426.0, 15417.0, 15423.0, 15430.0, 15440.0, 15454.0, 15412.0, 15393.0, 15416.0, 15417.0, 15433.0, 15446.0, 15424.0, 15414.0, 15411.0, 15394.0, 15418.0, 15420.0, 15414.0, 15420.0, 15431.0, 15433.0, 15415.0, 15403.0, 15382.0, 15425.0, 15401.0, 15420.0, 15420.0, 15418.0, 15421.0, 15423.0, 15420.0, 15420.0, 15433.0, 15446.0, 15449.0, 15450.0, 15428.0, 15423.0, 15407.0, 15411.0, 15402.0, 15419.0, 15434.0, 15422.0, 15422.0, 15420.0, 15424.0, 15418.0, 15426.0, 15422.0, 15421.0, 15419.0, 15425.0, 15448.0, 15437.0, 15421.0, 15411.0, 15414.0, 15403.0, 15419.0, 15421.0, 15423.0, 15428.0, 15423.0, 15419.0, 15414.0, 15423.0, 15409.0, 15401.0, 15421.0, 15405.0, 15417.0, 15403.0, 15399.0, 15393.0, 15414.0, 15416.0, 15427.0, 15400.0, 15410.0, 15410.0, 15418.0, 15432.0, 15440.0, 15425.0, 15417.0, 15410.0, 15410.0, 15404.0, 15421.0, 15411.0, 15419.0, 15423.0, 15418.0, 15407.0, 15413.0, 15433.0, 15436.0, 15403.0, 15417.0, 15429.0, 15429.0, 15434.0, 15424.0, 15431.0, 15430.0, 15422.0, 15420.0, 15420.0, 15423.0, 15433.0, 15438.0, 15414.0, 15405.0, 15413.0, 15401.0, 15420.0, 15406.0, 15416.0, 15410.0, 15411.0, 15432.0, 15422.0, 15417.0, 15405.0, 15428.0, 15431.0, 15424.0, 15418.0, 15416.0, 15412.0, 15397.0, 15409.0, 15421.0],
      "WindowWidth": [43690.0, 43656.0, 43712.0, 43682.0, 43566.0, 43484.0, 43443.0, 43469.0, 43478.0, 43481.0, 43535.0, 43553.0, 43585.0, 43542.0, 43504.0, 43578.0, 43697.0, 43773.0, 43749.0, 43653.0, 43702.0, 43745.0, 43676.0, 43547.0, 43519.0, 43472.0, 43493.0, 43508.0, 43585.0, 43589.0, 43537.0, 43513.0, 43521.0, 43501.0, 43469.0, 43433.0, 43423.0, 43498.0, 43568.0, 43604.0, 43587.0, 43622.0, 43689.0, 43710.0, 43608.0, 43538.0, 43483.0, 43481.0, 43511.0, 43533.0, 43580.0, 43631.0, 43574.0, 43505.0, 43410.0, 43416.0, 43497.0, 43501.0, 43534.0, 43560.0, 43573.0, 43589.0, 43581.0, 43572.0, 43575.0, 43540.0, 43599.0, 43615.0, 43626.0, 43627.0, 43613.0, 43569.0, 43519.0, 43532.0, 43526.0, 43573.0, 43582.0, 43586.0, 43633.0, 43595.0, 43616.0, 43585.0, 43605.0, 43605.0, 43630.0, 43707.0, 43762.0, 43648.0, 43472.0, 43440.0, 43525.0, 43710.0, 43739.0, 43652.0, 43519.0, 43450.0, 43392.0, 43390.0, 43444.0, 43544.0, 43620.0, 43627.0, 43611.0, 43600.0, 43524.0, 43540.0, 43630.0, 43701.0, 43691.0, 43668.0, 43615.0, 43557.0, 43545.0, 43503.0, 43513.0, 43555.0, 43668.0, 43755.0, 43771.0, 43702.0, 43624.0, 43546.0, 43474.0, 43521.0, 43567.0, 43585.0, 43543.0, 43532.0, 43575.0, 43542.0, 43591.0, 43586.0, 43623.0, 43677.0, 43661.0, 43684.0, 43789.0, 43800.0, 43688.0, 43544.0, 43476.0, 43452.0, 43541.0, 43597.0, 43600.0, 43629.0, 43596.0, 43604.0, 43571.0, 43551.0, 43531.0, 43517.0, 43536.0, 43584.0, 43682.0, 43711.0, 43683.0, 43663.0, 43615.0, 43680.0, 43709.0, 43720.0, 43677.0, 43616.0, 43618.0, 43670.0, 43697.0, 43663.0, 43531.0, 43509.0, 43576.0, 43645.0, 43622.0, 43582.0, 43602.0, 43597.0, 43615.0, 43555.0, 43543.0, 43606.0, 43710.0, 43712.0, 43635.0, 43651.0, 43667.0, 43750.0, 43755.0, 43730.0, 43691.0, 43623.0, 43631.0, 43611.0, 43668.0, 43701.0, 43682.0, 43601.0, 43552.0, 43513.0, 43564.0, 43610.0, 43642.0, 43656.0, 43724.0, 43788.0, 43762.0, 43709.0, 43600.0, 43537.0, 43599.0, 43680.0, 43641.0, 43606.0, 43582.0, 43582.0, 43574.0, 43632.0, 43672.0, 43686.0]
    },
    "slices": {}
  }
}