{
  "AcquisitionMatrixPE": 116,
  "AcquisitionNumber": 1,
  "AcquisitionTime": "15:34:14.745000",
  "BandwidthPerPixelPhaseEncode": 18.539,
  "BaseResolution": 116,
  "BodyPartExamined": "HEAD",
  "ConsistencyInfo": "N4_VD13D_LATEST_20130810",
  "ConversionSoftware": "dcm2niix",
  "ConversionSoftwareVersion": "v1.0.20190410  (JP2:OpenJPEG) (JP-LS:CharLS) GCC5.5.0",
  "DerivedVendorReportedEchoSpacing": 0.000930006,
  "DeviceSerialNumber": "66014",
  "DwellTime": 3e-06,
  "EchoTime": 0.03,
  "EchoTrainLength": 50,
  "EffectiveEchoSpacing": 0.000465003,
  "FlipAngle": 81,
  "ImageComments": "Unaliased_MB3_PE4",
  "ImageOrientationPatientDICOM": [0.99882, -0.0262111, 0.0408787, 0.0313892, 0.990797, -0.131665],
  "ImageType": [
    "ORIGINAL",
    "PRIMARY",
    "M",
    "MB",
    "ND",
    "MOSAIC"
],
  "ImagingFrequency": 123.261,
  "InPlanePhaseEncodingDirectionDICOM": "COL",
  "InstitutionAddress": "Yiheyuan_Road_5_Beijing_Haidian_CN_100871",
  "InstitutionName": "Peking_University",
  "InstitutionalDepartmentName": "Department",
  "MRAcquisitionType": "2D",
  "MagneticFieldStrength": 3,
  "Manufacturer": "Siemens",
  "ManufacturersModelName": "Prisma",
  "Modality": "MR",
  "MultibandAccelerationFactor": 3,
  "ParallelReductionFactorInPlane": 2,
  "PartialFourier": 0.875,
  "PatientPosition": "HFS",
  "PercentPhaseFOV": 100,
  "PhaseEncodingDirection": "j-",
  "PhaseEncodingSteps": 101,
  "PhaseResolution": 1,
  "PixelBandwidth": 1435,
  "ProcedureStepDescription": "Research_Projects_64CH",
  "ProtocolName": "mbep2d_bold_MB3_learn5",
  "PulseSequenceDetails": "%CustomerSeq%_cmrr_mbep2d_bold",
  "ReceiveCoilActiveElements": "HC1-7",
  "ReceiveCoilName": "HeadNeck_64",
  "ReconMatrixPE": 116,
  "RefLinesPE": 44,
  "RepetitionTime": 2,
  "SAR": 0.0629103,
  "ScanOptions": "PFP_FS",
  "ScanningSequence": "EP",
  "SequenceName": "epfid2d1_116",
  "SequenceVariant": "SK_SS",
  "SeriesDescription": "mbep2d_bold_MB3_learn5",
  "SeriesNumber": 10,
  "ShimSetting": [-3450, -2116, -1932, 457, 21, -220, 62, -10],
  "SliceThickness": 1.9,
  "SliceTiming": [0, 0.9075, 1.815, 0.7425, 1.65, 0.5775, 1.485, 0.4125, 1.32, 0.2475, 1.155, 0.0825, 0.99, 1.8975, 0.825, 1.7325, 0.66, 1.5675, 0.495, 1.4025, 0.33, 1.2375, 0.165, 1.0725, 0, 0.9075, 1.815, 0.7425, 1.65, 0.5775, 1.485, 0.4125, 1.32, 0.2475, 1.155, 0.0825, 0.99, 1.8975, 0.825, 1.7325, 0.66, 1.5675, 0.495, 1.4025, 0.33, 1.2375, 0.165, 1.0725, 0, 0.9075, 1.815, 0.7425, 1.65, 0.5775, 1.485, 0.4125, 1.32, 0.2475, 1.155, 0.0825, 0.99, 1.8975, 0.825, 1.7325, 0.66, 1.5675, 0.495, 1.4025, 0.33, 1.2375, 0.165, 1.0725],
  "SoftwareVersions": "syngo_MR_D13D",
  "SpacingBetweenSlices": 1.9,
  "StationName": "AWP66014",
  "TaskName": "updating",
  "TotalReadoutTime": 0.0534753,
  "TxRefAmp": 216.085,
  "WipMemBlock": "282ea4f5-694d-4367-98e9-f74ffdbf5c64||Sequence: vd13d/master r/0735857; Nov 19 2014 09:21:40 by eja",
  "dcmmeta_affine": [
    [-1.8943142890930176, 0.05953129380941391, 0.0703977569937706, 103.78595733642578],
    [0.04971073195338249, 1.8790980577468872, -0.25230640172958374, -96.73758697509766],
    [0.07752864062786102, 0.24970953166484833, 1.8818570375442505, -89.73324584960938],
    [0.0, 0.0, 0.0, 1.0]
],
  "dcmmeta_reorient_transform": [
    [0.0, -1.0, 0.0, 115.0],
    [1.0, 0.0, 0.0, 0.0],
    [0.0, 0.0, 1.0, 0.0],
    [0.0, 0.0, 0.0, 1.0]
],
  "dcmmeta_shape": [116, 116, 72, 218],
  "dcmmeta_slice_dim": 2,
  "dcmmeta_version": 0.6,
  "global": {
    "const": {
      "AcquisitionMatrix": [116, 0, 0, 116],
      "AngioFlag": "N",
      "BitsAllocated": 16,
      "BitsStored": 16,
      "BodyPartExamined": "HEAD",
      "Columns": 1044,
      "EchoNumbers": 1,
      "EchoTime": 30.0,
      "EchoTrainLength": 50,
      "FlipAngle": 81.0,
      "HighBit": 15,
      "ImageOrientationPatient": [0.99882025732593, -0.0262111124896, 0.04087873698427, 0.03138922721502, 0.99079717304897, -0.1316650230434],
      "ImagePositionPatient": [-1017.2164069418, -968.19442966181, 18.875280082812],
      "ImageType": [
        "ORIGINAL",
        "PRIMARY",
        "M",
        "MB",
        "ND",
        "MOSAIC"
],
      "ImagedNucleus": "1H",
      "ImagingFrequency": 123.260588,
      "InPlanePhaseEncodingDirection": "COL",
      "LargestImagePixelValue": 65535,
      "MRAcquisitionType": "2D",
      "MagneticFieldStrength": 3.0,
      "Manufacturer": "SIEMENS",
      "ManufacturerModelName": "Prisma",
      "Modality": "MR",
      "NumberOfAverages": 1.0,
      "NumberOfPhaseEncodingSteps": 101,
      "PercentPhaseFieldOfView": 100.0,
      "PercentSampling": 100.0,
      "PerformedProcedureStepStartTime": "143507.591000",
      "PhotometricInterpretation": "MONOCHROME2",
      "PixelBandwidth": 1435.0,
      "PixelRepresentation": 0,
      "PixelSpacing": [1.8965517282486, 1.8965517282486],
      "ProtocolName": "mbep2d_bold_MB3_learn5",
      "RepetitionTime": 2000.0,
      "Rows": 1044,
      "SAR": 0.06291025065232,
      "SamplesPerPixel": 1,
      "ScanOptions": [
        "PFP",
        "FS"
],
      "ScanningSequence": "EP",
      "SequenceName": "epfid2d1_116",
      "SequenceVariant": [
        "SK",
        "SS"
],
      "SeriesDescription": "mbep2d_bold_MB3_learn5",
      "SeriesNumber": 10,
      "SeriesTime": "153430.533000",
      "SliceLocation": -72.184908183584,
      "SliceThickness": 1.8999999761581,
      "SmallestImagePixelValue": 0,
      "SoftwareVersions": "syngo MR D13D",
      "SpacingBetweenSlices": 1.9000000332859,
      "SpecificCharacterSet": "ISO_IR 100",
      "StudyID": "1",
      "StudyTime": "143507.515000",
      "TimeOfLastCalibration": ["123723.000000", "123723.000000"],
      "TransmitCoilName": "Body",
      "VariableFlipAngleFlag": "N",
      "WindowCenterWidthExplanation": "Algo1",
      "dBdt": 0.0},
    "slices": {}
  },
  "time": {
    "samples": {
      "AcquisitionNumber": [1, 2, 3, 4, 5, 6, 7, 8, 9, 10, 11, 12, 13, 14, 15, 16, 17, 18, 19, 20, 21, 22, 23, 24, 25, 26, 27, 28, 29, 30, 31, 32, 33, 34, 35, 36, 37, 38, 39, 40, 41, 42, 43, 44, 45, 46, 47, 48, 49, 50, 51, 52, 53, 54, 55, 56, 57, 58, 59, 60, 61, 62, 63, 64, 65, 66, 67, 68, 69, 70, 71, 72, 73, 74, 75, 76, 77, 78, 79, 80, 81, 82, 83, 84, 85, 86, 87, 88, 89, 90, 91, 92, 93, 94, 95, 96, 97, 98, 99, 100, 101, 102, 103, 104, 105, 106, 107, 108, 109, 110, 111, 112, 113, 114, 115, 116, 117, 118, 119, 120, 121, 122, 123, 124, 125, 126, 127, 128, 129, 130, 131, 132, 133, 134, 135, 136, 137, 138, 139, 140, 141, 142, 143, 144, 145, 146, 147, 148, 149, 150, 151, 152, 153, 154, 155, 156, 157, 158, 159, 160, 161, 162, 163, 164, 165, 166, 167, 168, 169, 170, 171, 172, 173, 174, 175, 176, 177, 178, 179, 180, 181, 182, 183, 184, 185, 186, 187, 188, 189, 190, 191, 192, 193, 194, 195, 196, 197, 198, 199, 200, 201, 202, 203, 204, 205, 206, 207, 208, 209, 210, 211, 212, 213, 214, 215, 216, 217, 218],
      "AcquisitionTime": ["153414.745000", "153416.745000", "153418.745000", "153420.745000", "153422.745000", "153424.745000", "153426.745000", "153428.745000", "153430.745000", "153432.745000", "153434.745000", "153436.745000", "153438.745000", "153440.745000", "153442.745000", "153444.745000", "153446.745000", "153448.745000", "153450.745000", "153452.745000", "153454.745000", "153456.745000", "153458.745000", "153500.745000", "153502.745000", "153504.745000", "153506.745000", "153508.745000", "153510.745000", "153512.745000", "153514.745000", "153516.745000", "153518.745000", "153520.745000", "153522.745000", "153524.745000", "153526.745000", "153528.745000", "153530.745000", "153532.745000", "153534.745000", "153536.745000", "153538.745000", "153540.745000", "153542.745000", "153544.745000", "153546.745000", "153548.745000", "153550.745000", "153552.745000", "153554.745000", "153556.745000", "153558.745000", "153600.745000", "153602.745000", "153604.745000", "153606.745000", "153608.745000", "153610.745000", "153612.745000", "153614.745000", "153616.745000", "153618.745000", "153620.745000", "153622.745000", "153624.745000", "153626.745000", "153628.745000", "153630.745000", "153632.745000", "153634.745000", "153636.745000", "153638.745000", "153640.745000", "153642.745000", "153644.745000", "153646.745000", "153648.745000", "153650.747500", "153652.747500", "153654.747500", "153656.747500", "153658.747500", "153700.747500", "153702.747500", "153704.747500", "153706.747500", "153708.747500", "153710.747500", "153712.747500", "153714.747500", "153716.747500", "153718.747500", "153720.747500", "153722.747500", "153724.747500", "153726.747500", "153728.747500", "153730.747500", "153732.747500", "153734.747500", "153736.747500", "153738.747500", "153740.747500", "153742.747500", "153744.747500", "153746.747500", "153748.747500", "153750.747500", "153752.747500", "153754.747500", "153756.747500", "153758.747500", "153800.747500", "153802.747500", "153804.747500", "153806.747500", "153808.747500", "153810.747500", "153812.747500", "153814.747500", "153816.747500", "153818.747500", "153820.747500", "153822.747500", "153824.747500", "153826.747500", "153828.747500", "153830.747500", "153832.747500", "153834.747500", "153836.747500", "153838.747500", "153840.747500", "153842.747500", "153844.747500", "153846.747500", "153848.747500", "153850.747500", "153852.747500", "153854.747500", "153856.747500", "153858.747500", "153900.747500", "153902.747500", "153904.747500", "153906.747500", "153908.747500", "153910.747500", "153912.747500", "153914.747500", "153916.747500", "153918.747500", "153920.747500", "153922.747500", "153924.747500", "153926.747500", "153928.747500", "153930.747500", "153932.747500", "153934.747500", "153936.747500", "153938.747500", "153940.747500", "153942.747500", "153944.747500", "153946.747500", "153948.747500", "153950.747500", "153952.747500", "153954.747500", "153956.747500", "153958.747500", "154000.747500", "154002.747500", "154004.747500", "154006.747500", "154008.747500", "154010.747500", "154012.747500", "154014.747500", "154016.747500", "154018.747500", "154020.747500", "154022.747500", "154024.747500", "154026.747500", "154028.747500", "154030.747500", "154032.747500", "154034.747500", "154036.747500", "154038.747500", "154040.747500", "154042.747500", "154044.747500", "154046.747500", "154048.747500", "154050.747500", "154052.747500", "154054.747500", "154056.747500", "154058.747500", "154100.747500", "154102.747500", "154104.747500", "154106.747500", "154108.747500", "154110.747500", "154112.747500", "154114.747500", "154116.747500", "154118.747500", "154120.747500", "154122.747500", "154124.747500", "154126.747500", "154128.747500"],
      "ContentTime": ["153430.539000", "153431.531000", "153432.532000", "153432.536000", "153433.531000", "153434.531000", "153434.535000", "153435.532000", "153436.531000", "153437.532000", "153438.533000", "153440.031000", "153442.032000", "153444.031000", "153446.032000", "153448.033000", "153450.032000", "153452.032000", "153454.032000", "153456.032000", "153458.032000", "153500.033000", "153502.032000", "153504.032000", "153506.033000", "153508.032000", "153510.032000", "153512.032000", "153514.033000", "153516.032000", "153518.031000", "153520.032000", "153522.031000", "153524.032000", "153526.032000", "153528.032000", "153530.033000", "153532.032000", "153534.032000", "153536.032000", "153538.032000", "153540.032000", "153542.032000", "153544.032000", "153546.033000", "153548.032000", "153550.033000", "153552.032000", "153554.032000", "153556.033000", "153558.033000", "153600.032000", "153602.031000", "153604.032000", "153606.032000", "153608.032000", "153610.032000", "153612.032000", "153614.032000", "153616.033000", "153618.032000", "153620.032000", "153622.032000", "153624.032000", "153626.032000", "153628.031000", "153630.033000", "153632.031000", "153634.032000", "153636.032000", "153638.032000", "153640.033000", "153642.030000", "153644.032000", "153646.032000", "153648.032000", "153650.032000", "153652.032000", "153654.032000", "153656.032000", "153658.032000", "153700.032000", "153702.032000", "153704.032000", "153706.032000", "153708.033000", "153710.032000", "153712.032000", "153714.032000", "153716.032000", "153718.033000", "153720.031000", "153722.033000", "153724.032000", "153726.034000", "153728.031000", "153730.031000", "153732.031000", "153734.031000", "153736.031000", "153738.031000", "153740.031000", "153742.031000", "153744.031000", "153746.031000", "153748.031000", "153750.031000", "153752.031000", "153754.031000", "153756.031000", "153758.031000", "153800.031000", "153802.030000", "153804.031000", "153806.031000", "153808.031000", "153810.031000", "153812.031000", "153814.031000", "153816.031000", "153818.032000", "153820.031000", "153822.031000", "153824.031000", "153826.031000", "153828.031000", "153830.031000", "153832.030000", "153834.030000", "153836.032000", "153838.031000", "153840.031000", "153842.031000", "153844.031000", "153846.031000", "153848.031000", "153850.031000", "153852.031000", "153854.030000", "153856.030000", "153858.031000", "153900.031000", "153902.031000", "153904.031000", "153906.031000", "153908.031000", "153910.031000", "153912.031000", "153914.031000", "153916.031000", "153918.031000", "153920.031000", "153922.031000", "153924.030000", "153926.031000", "153928.032000", "153930.031000", "153932.031000", "153934.031000", "153936.031000", "153938.031000", "153940.031000", "153942.031000", "153944.031000", "153946.032000", "153948.031000", "153950.031000", "153952.031000", "153954.031000", "153956.031000", "153958.031000", "154000.031000", "154002.031000", "154004.031000", "154006.031000", "154008.031000", "154010.031000", "154012.031000", "154014.031000", "154016.031000", "154018.031000", "154020.031000", "154022.032000", "154024.031000", "154026.031000", "154028.031000", "154030.031000", "154032.032000", "154034.031000", "154036.031000", "154038.032000", "154040.031000", "154042.031000", "154044.031000", "154046.032000", "154048.032000", "154050.032000", "154052.031000", "154054.031000", "154056.033000", "154058.032000", "154100.031000", "154102.031000", "154104.032000", "154106.032000", "154108.032000", "154110.032000", "154112.031000", "154114.032000", "154116.032000", "154118.032000", "154120.032000", "154122.032000", "154124.032000", "154126.032000", "154128.032000", "154130.032000", "154131.651000"],
      "InstanceCreationTime": ["153430.539000", "153431.531000", "153432.532000", "153432.536000", "153433.531000", "153434.531000", "153434.535000", "153435.532000", "153436.531000", "153437.532000", "153438.533000", "153440.031000", "153442.032000", "153444.031000", "153446.032000", "153448.033000", "153450.032000", "153452.032000", "153454.032000", "153456.032000", "153458.032000", "153500.033000", "153502.032000", "153504.032000", "153506.033000", "153508.032000", "153510.032000", "153512.032000", "153514.033000", "153516.032000", "153518.031000", "153520.032000", "153522.031000", "153524.032000", "153526.032000", "153528.032000", "153530.033000", "153532.032000", "153534.032000", "153536.032000", "153538.032000", "153540.032000", "153542.032000", "153544.032000", "153546.033000", "153548.032000", "153550.033000", "153552.032000", "153554.032000", "153556.033000", "153558.033000", "153600.032000", "153602.031000", "153604.032000", "153606.032000", "153608.032000", "153610.032000", "153612.032000", "153614.032000", "153616.033000", "153618.032000", "153620.032000", "153622.032000", "153624.032000", "153626.032000", "153628.031000", "153630.033000", "153632.031000", "153634.032000", "153636.032000", "153638.032000", "153640.033000", "153642.030000", "153644.032000", "153646.032000", "153648.032000", "153650.032000", "153652.032000", "153654.032000", "153656.032000", "153658.032000", "153700.032000", "153702.032000", "153704.032000", "153706.032000", "153708.033000", "153710.032000", "153712.032000", "153714.032000", "153716.032000", "153718.033000", "153720.031000", "153722.033000", "153724.032000", "153726.034000", "153728.031000", "153730.031000", "153732.031000", "153734.031000", "153736.031000", "153738.031000", "153740.031000", "153742.031000", "153744.031000", "153746.031000", "153748.031000", "153750.031000", "153752.031000", "153754.031000", "153756.031000", "153758.031000", "153800.031000", "153802.030000", "153804.031000", "153806.031000", "153808.031000", "153810.031000", "153812.031000", "153814.031000", "153816.031000", "153818.032000", "153820.031000", "153822.031000", "153824.031000", "153826.031000", "153828.031000", "153830.031000", "153832.030000", "153834.030000", "153836.032000", "153838.031000", "153840.031000", "153842.031000", "153844.031000", "153846.031000", "153848.031000", "153850.031000", "153852.031000", "153854.030000", "153856.030000", "153858.031000", "153900.031000", "153902.031000", "153904.031000", "153906.031000", "153908.031000", "153910.031000", "153912.031000", "153914.031000", "153916.031000", "153918.031000", "153920.031000", "153922.031000", "153924.030000", "153926.031000", "153928.032000", "153930.031000", "153932.031000", "153934.031000", "153936.031000", "153938.031000", "153940.031000", "153942.031000", "153944.031000", "153946.032000", "153948.031000", "153950.031000", "153952.031000", "153954.031000", "153956.031000", "153958.031000", "154000.031000", "154002.031000", "154004.031000", "154006.031000", "154008.031000", "154010.031000", "154012.031000", "154014.031000", "154016.031000", "154018.031000", "154020.031000", "154022.032000", "154024.031000", "154026.031000", "154028.031000", "154030.031000", "154032.032000", "154034.031000", "154036.031000", "154038.032000", "154040.031000", "154042.031000", "154044.031000", "154046.032000", "154048.032000", "154050.032000", "154052.031000", "154054.031000", "154056.033000", "154058.032000", "154100.031000", "154102.031000", "154104.032000", "154106.032000", "154108.032000", "154110.032000", "154112.031000", "154114.032000", "154116.032000", "154118.032000", "154120.032000", "154122.032000", "154124.032000", "154126.032000", "154128.032000", "154130.032000", "154131.651000"],
      "InstanceNumber": [1, 2, 3, 4, 5, 6, 7, 8, 9, 10, 11, 12, 13, 14, 15, 16, 17, 18, 19, 20, 21, 22, 23, 24, 25, 26, 27, 28, 29, 30, 31, 32, 33, 34, 35, 36, 37, 38, 39, 40, 41, 42, 43, 44, 45, 46, 47, 48, 49, 50, 51, 52, 53, 54, 55, 56, 57, 58, 59, 60, 61, 62, 63, 64, 65, 66, 67, 68, 69, 70, 71, 72, 73, 74, 75, 76, 77, 78, 79, 80, 81, 82, 83, 84, 85, 86, 87, 88, 89, 90, 91, 92, 93, 94, 95, 96, 97, 98, 99, 100, 101, 102, 103, 104, 105, 106, 107, 108, 109, 110, 111, 112, 113, 114, 115, 116, 117, 118, 119, 120, 121, 122, 123, 124, 125, 126, 127, 128, 129, 130, 131, 132, 133, 134, 135, 136, 137, 138, 139, 140, 141, 142, 143, 144, 145, 146, 147, 148, 149, 150, 151, 152, 153, 154, 155, 156, 157, 158, 159, 160, 161, 162, 163, 164, 165, 166, 167, 168, 169, 170, 171, 172, 173, 174, 175, 176, 177, 178, 179, 180, 181, 182, 183, 184, 185, 186, 187, 188, 189, 190, 191, 192, 193, 194, 195, 196, 197, 198, 199, 200, 201, 202, 203, 204, 205, 206, 207, 208, 209, 210, 211, 212, 213, 214, 215, 216, 217, 218],
      "WindowCenter": [15447.0, 15421.0, 15429.0, 15436.0, 15436.0, 15432.0, 15410.0, 15407.0, 15413.0, 15419.0, 15412.0, 15403.0, 15414.0, 15407.0, 15407.0, 15398.0, 15372.0, 15393.0, 15409.0, 15417.0, 15411.0, 15419.0, 15430.0, 15439.0, 15437.0, 15409.0, 15412.0, 15402.0, 15424.0, 15416.0, 15421.0, 15437.0, 15419.0, 15428.0, 15426.0, 15407.0, 15410.0, 15405.0, 15414.0, 15436.0, 15433.0, 15420.0, 15406.0, 15388.0, 15401.0, 15406.0, 15413.0, 15422.0, 15435.0, 15437.0, 15429.0, 15419.0, 15423.0, 15410.0, 15416.0, 15423.0, 15427.0, 15414.0, 15414.0, 15422.0, 15420.0, 15420.0, 15405.0, 15422.0, 15420.0, 15410.0, 15415.0, 15406.0, 15414.0, 15410.0, 15422.0, 15414.0, 15409.0, 15418.0, 15425.0, 15414.0, 15404.0, 15417.0, 15402.0, 15409.0, 15413.0, 15427.0, 15424.0, 15405.0, 15402.0, 15398.0, 15413.0, 15409.0, 15407.0, 15402.0, 15398.0, 15409.0, 15417.0, 15418.0, 15410.0, 15403.0, 15412.0, 15391.0, 15397.0, 15408.0, 15421.0, 15410.0, 15415.0, 15412.0, 15410.0, 15407.0, 15408.0, 15420.0, 15413.0, 15415.0, 15406.0, 15406.0, 15397.0, 15404.0, 15394.0, 15408.0, 15387.0, 15401.0, 15411.0, 15411.0, 15417.0, 15420.0, 15421.0, 15400.0, 15408.0, 15409.0, 15420.0, 15418.0, 15412.0, 15422.0, 15408.0, 15412.0, 15396.0, 15423.0, 15415.0, 15419.0, 15413.0, 15401.0, 15395.0, 15392.0, 15404.0, 15412.0, 15412.0, 15410.0, 15406.0, 15416.0, 15415.0, 15419.0, 15409.0, 15416.0, 15413.0, 15424.0, 15427.0, 15417.0, 15437.0, 15428.0, 15420.0, 15415.0, 15410.0, 15402.0, 15406.0, 15427.0, 15408.0, 15414.0, 15394.0, 15398.0, 15403.0, 15400.0, 15397.0, 15396.0, 15391.0, 15406.0, 15400.0, 15411.0, 15396.0, 15403.0, 15409.0, 15417.0, 15411.0, 15402.0, 15412.0, 15427.0, 15419.0, 15414.0, 15410.0, 15414.0, 15402.0, 15407.0, 15407.0, 15418.0, 15426.0, 15417.0, 15392.0, 15389.0, 15387.0, 15382.0, 15402.0, 15413.0, 15403.0, 15397.0, 15411.0, 15409.0, 15428.0, 15422.0, 15421.0, 15448.0, 15456.0, 15442.0, 15422.0, 15407.0, 15421.0, 15393.0, 15399.0, 15402.0, 15392.0, 15405.0, 15428.0, 15417.0],
      "WindowWidth": [43685.0, 43688.0, 43822.0, 43817.0, 43687.0, 43555.0, 43505.0, 43504.0, 43551.0, 43587.0, 43577.0, 43611.0, 43636.0, 43604.0, 43461.0, 43336.0, 43365.0, 43458.0, 43531.0, 43566.0, 43630.0, 43697.0, 43736.0, 43687.0, 43548.0, 43446.0, 43462.0, 43540.0, 43575.0, 43653.0, 43670.0, 43661.0, 43641.0, 43610.0, 43608.0, 43571.0, 43560.0, 43609.0, 43706.0, 43730.0, 43669.0, 43582.0, 43497.0, 43466.0, 43508.0, 43513.0, 43591.0, 43644.0, 43714.0, 43702.0, 43679.0, 43641.0, 43588.0, 43577.0, 43554.0, 43535.0, 43581.0, 43583.0, 43635.0, 43589.0, 43519.0, 43513.0, 43540.0, 43545.0, 43501.0, 43479.0, 43482.0, 43501.0, 43580.0, 43560.0, 43586.0, 43508.0, 43530.0, 43528.0, 43519.0, 43521.0, 43525.0, 43551.0, 43592.0, 43611.0, 43661.0, 43635.0, 43601.0, 43509.0, 43536.0, 43559.0, 43575.0, 43573.0, 43528.0, 43538.0, 43534.0, 43562.0, 43583.0, 43499.0, 43472.0, 43425.0, 43448.0, 43455.0, 43447.0, 43445.0, 43516.0, 43575.0, 43595.0, 43507.0, 43419.0, 43431.0, 43433.0, 43516.0, 43564.0, 43566.0, 43483.0, 43428.0, 43375.0, 43382.0, 43388.0, 43403.0, 43408.0, 43440.0, 43519.0, 43594.0, 43658.0, 43615.0, 43572.0, 43494.0, 43527.0, 43558.0, 43583.0, 43594.0, 43516.0, 43443.0, 43403.0, 43380.0, 43479.0, 43604.0, 43594.0, 43529.0, 43449.0, 43396.0, 43460.0, 43459.0, 43528.0, 43520.0, 43495.0, 43450.0, 43486.0, 43524.0, 43524.0, 43488.0, 43519.0, 43484.0, 43494.0, 43520.0, 43538.0, 43570.0, 43546.0, 43510.0, 43459.0, 43426.0, 43465.0, 43499.0, 43533.0, 43468.0, 43451.0, 43470.0, 43492.0, 43493.0, 43483.0, 43448.0, 43461.0, 43445.0, 43553.0, 43554.0, 43535.0, 43477.0, 43477.0, 43498.0, 43606.0, 43669.0, 43577.0, 43498.0, 43470.0, 43555.0, 43559.0, 43480.0, 43435.0, 43426.0, 43473.0, 43563.0, 43618.0, 43629.0, 43524.0, 43456.0, 43358.0, 43299.0, 43384.0, 43504.0, 43551.0, 43521.0, 43482.0, 43464.0, 43508.0, 43563.0, 43583.0, 43576.0, 43634.0, 43649.0, 43657.0, 43583.0, 43518.0, 43461.0, 43417.0, 43419.0, 43421.0, 43397.0, 43416.0, 43514.0, 43568.0, 43528.0]
    },
    "slices": {}
  }
}