{
  "AcquisitionMatrixPE": 116,
  "AcquisitionNumber": 1,
  "AcquisitionTime": "15:42:10.262500",
  "BandwidthPerPixelPhaseEncode": 18.539,
  "BaseResolution": 116,
  "BodyPartExamined": "HEAD",
  "ConsistencyInfo": "N4_VD13D_LATEST_20130810",
  "ConversionSoftware": "dcm2niix",
  "ConversionSoftwareVersion": "v1.0.20190410  (JP2:OpenJPEG) (JP-LS:CharLS) GCC5.5.0",
  "DerivedVendorReportedEchoSpacing": 0.000930006,
  "DeviceSerialNumber": "66014",
  "DwellTime": 3e-06,
  "EchoTime": 0.03,
  "EchoTrainLength": 50,
  "EffectiveEchoSpacing": 0.000465003,
  "FlipAngle": 81,
  "ImageComments": "Unaliased_MB3_PE4",
  "ImageOrientationPatientDICOM": [0.994629, 0.0546724, -0.0878872, -0.0590919, 0.997074, -0.0484953],
  "ImageType": [
    "ORIGINAL",
    "PRIMARY",
    "M",
    "MB",
    "ND",
    "MOSAIC"
],
  "ImagingFrequency": 123.261,
  "InPlanePhaseEncodingDirectionDICOM": "COL",
  "InstitutionAddress": "Yiheyuan_Road_5_Beijing_Haidian_CN_100871",
  "InstitutionName": "Peking_University",
  "InstitutionalDepartmentName": "Department",
  "MRAcquisitionType": "2D",
  "MagneticFieldStrength": 3,
  "Manufacturer": "Siemens",
  "ManufacturersModelName": "Prisma",
  "Modality": "MR",
  "MultibandAccelerationFactor": 3,
  "ParallelReductionFactorInPlane": 2,
  "PartialFourier": 0.875,
  "PatientPosition": "HFS",
  "PercentPhaseFOV": 100,
  "PhaseEncodingDirection": "j-",
  "PhaseEncodingSteps": 101,
  "PhaseResolution": 1,
  "PixelBandwidth": 1435,
  "ProcedureStepDescription": "Research_Projects_64CH",
  "ProtocolName": "mbep2d_bold_MB3_learn2",
  "PulseSequenceDetails": "%CustomerSeq%_cmrr_mbep2d_bold",
  "ReceiveCoilActiveElements": "HC1-7",
  "ReceiveCoilName": "HeadNeck_64",
  "ReconMatrixPE": 116,
  "RefLinesPE": 44,
  "RepetitionTime": 2,
  "SAR": 0.0475238,
  "ScanOptions": "PFP_FS",
  "ScanningSequence": "EP",
  "SequenceName": "epfid2d1_116",
  "SequenceVariant": "SK_SS",
  "SeriesDescription": "mbep2d_bold_MB3_learn2",
  "SeriesNumber": 7,
  "ShimSetting": [-3472, -2112, -1950, 328, -76, -161, -14, 30],
  "SliceThickness": 1.9,
  "SliceTiming": [0, 0.9075, 1.815, 0.7425, 1.65, 0.5775, 1.485, 0.4125, 1.32, 0.2475, 1.155, 0.0825, 0.99, 1.8975, 0.825, 1.7325, 0.66, 1.5675, 0.495, 1.4025, 0.33, 1.2375, 0.165, 1.0725, 0, 0.9075, 1.815, 0.7425, 1.65, 0.5775, 1.485, 0.4125, 1.32, 0.2475, 1.155, 0.0825, 0.99, 1.8975, 0.825, 1.7325, 0.66, 1.5675, 0.495, 1.4025, 0.33, 1.2375, 0.165, 1.0725, 0, 0.9075, 1.815, 0.7425, 1.65, 0.5775, 1.485, 0.4125, 1.32, 0.2475, 1.155, 0.0825, 0.99, 1.8975, 0.825, 1.7325, 0.66, 1.5675, 0.495, 1.4025, 0.33, 1.2375, 0.165, 1.0725],
  "SoftwareVersions": "syngo_MR_D13D",
  "SpacingBetweenSlices": 1.9,
  "StationName": "AWP66014",
  "TaskName": "updating",
  "TotalReadoutTime": 0.0534753,
  "TxRefAmp": 214.158,
  "WipMemBlock": "80e719ef-6c0c-4464-92df-b611d7b82c3f||Sequence: vd13d/master r/0735857; Nov 19 2014 09:21:40 by eja",
  "dcmmeta_affine": [
    [-1.886365294456482, -0.11207089573144913, -0.16145944595336914, 120.96133422851562],
    [-0.1036890521645546, 1.8910021781921387, -0.10151363164186478, -90.0372543334961],
    [-0.16668257117271423, 0.09197379648685455, 1.8904036283493042, -70.83676147460938],
    [0.0, 0.0, 0.0, 1.0]
],
  "dcmmeta_reorient_transform": [
    [0.0, -1.0, 0.0, 115.0],
    [1.0, 0.0, 0.0, 0.0],
    [0.0, 0.0, 1.0, 0.0],
    [0.0, 0.0, 0.0, 1.0]
],
  "dcmmeta_shape": [116, 116, 72, 218],
  "dcmmeta_slice_dim": 2,
  "dcmmeta_version": 0.6,
  "global": {
    "const": {
      "AcquisitionMatrix": [116, 0, 0, 116],
      "AngioFlag": "N",
      "BitsAllocated": 16,
      "BitsStored": 16,
      "BodyPartExamined": "HEAD",
      "Columns": 1044,
      "EchoNumbers": 1,
      "EchoTime": 30.0,
      "EchoTrainLength": 50,
      "FlipAngle": 81.0,
      "HighBit": 15,
      "ImageOrientationPatient": [0.99462896194531, 0.0546724072875, -0.0878871773411, -0.0590919279825, 0.99707389509351, -0.048495275753],
      "ImagePositionPatient": [-931.34577486065, -1052.964751076, 59.756788035526],
      "ImageType": [
        "ORIGINAL",
        "PRIMARY",
        "M",
        "MB",
        "ND",
        "MOSAIC"
],
      "ImagedNucleus": "1H",
      "ImagingFrequency": 123.260616,
      "InPlanePhaseEncodingDirection": "COL",
      "LargestImagePixelValue": 65535,
      "MRAcquisitionType": "2D",
      "MagneticFieldStrength": 3.0,
      "Manufacturer": "SIEMENS",
      "ManufacturerModelName": "Prisma",
      "Modality": "MR",
      "NumberOfAverages": 1.0,
      "NumberOfPhaseEncodingSteps": 101,
      "PercentPhaseFieldOfView": 100.0,
      "PercentSampling": 100.0,
      "PerformedProcedureStepStartTime": "151003.579000",
      "PhotometricInterpretation": "MONOCHROME2",
      "PixelBandwidth": 1435.0,
      "PixelRepresentation": 0,
      "PixelSpacing": [1.8965517282486, 1.8965517282486],
      "ProtocolName": "mbep2d_bold_MB3_learn2",
      "RepetitionTime": 2000.0,
      "Rows": 1044,
      "SAR": 0.04752378372179,
      "SamplesPerPixel": 1,
      "ScanOptions": [
        "PFP",
        "FS"
],
      "ScanningSequence": "EP",
      "SequenceName": "epfid2d1_116",
      "SequenceVariant": [
        "SK",
        "SS"
],
      "SeriesDescription": "mbep2d_bold_MB3_learn2",
      "SeriesNumber": 7,
      "SeriesTime": "154225.983000",
      "SliceLocation": -75.947581592974,
      "SliceThickness": 1.8999999761581,
      "SmallestImagePixelValue": 0,
      "SoftwareVersions": "syngo MR D13D",
      "SpacingBetweenSlices": 1.8999999725544,
      "SpecificCharacterSet": "ISO_IR 100",
      "StudyID": "1",
      "StudyTime": "151003.509000",
      "TimeOfLastCalibration": ["123723.000000", "123723.000000"],
      "TransmitCoilName": "Body",
      "VariableFlipAngleFlag": "N",
      "WindowCenterWidthExplanation": "Algo1",
      "dBdt": 0.0},
    "slices": {}
  },
  "time": {
    "samples": {
      "AcquisitionNumber": [1, 2, 3, 4, 5, 6, 7, 8, 9, 10, 11, 12, 13, 14, 15, 16, 17, 18, 19, 20, 21, 22, 23, 24, 25, 26, 27, 28, 29, 30, 31, 32, 33, 34, 35, 36, 37, 38, 39, 40, 41, 42, 43, 44, 45, 46, 47, 48, 49, 50, 51, 52, 53, 54, 55, 56, 57, 58, 59, 60, 61, 62, 63, 64, 65, 66, 67, 68, 69, 70, 71, 72, 73, 74, 75, 76, 77, 78, 79, 80, 81, 82, 83, 84, 85, 86, 87, 88, 89, 90, 91, 92, 93, 94, 95, 96, 97, 98, 99, 100, 101, 102, 103, 104, 105, 106, 107, 108, 109, 110, 111, 112, 113, 114, 115, 116, 117, 118, 119, 120, 121, 122, 123, 124, 125, 126, 127, 128, 129, 130, 131, 132, 133, 134, 135, 136, 137, 138, 139, 140, 141, 142, 143, 144, 145, 146, 147, 148, 149, 150, 151, 152, 153, 154, 155, 156, 157, 158, 159, 160, 161, 162, 163, 164, 165, 166, 167, 168, 169, 170, 171, 172, 173, 174, 175, 176, 177, 178, 179, 180, 181, 182, 183, 184, 185, 186, 187, 188, 189, 190, 191, 192, 193, 194, 195, 196, 197, 198, 199, 200, 201, 202, 203, 204, 205, 206, 207, 208, 209, 210, 211, 212, 213, 214, 215, 216, 217, 218],
      "AcquisitionTime": ["154210.262500", "154212.262500", "154214.262500", "154216.262500", "154218.262500", "154220.262500", "154222.262500", "154224.262500", "154226.262500", "154228.262500", "154230.262500", "154232.262500", "154234.262500", "154236.262500", "154238.262500", "154240.262500", "154242.262500", "154244.262500", "154246.262500", "154248.262500", "154250.262500", "154252.262500", "154254.262500", "154256.262500", "154258.262500", "154300.262500", "154302.262500", "154304.262500", "154306.262500", "154308.262500", "154310.262500", "154312.262500", "154314.262500", "154316.262500", "154318.262500", "154320.262500", "154322.262500", "154324.262500", "154326.262500", "154328.262500", "154330.262500", "154332.262500", "154334.262500", "154336.262500", "154338.262500", "154340.262500", "154342.262500", "154344.262500", "154346.262500", "154348.262500", "154350.262500", "154352.262500", "154354.262500", "154356.262500", "154358.262500", "154400.262500", "154402.262500", "154404.262500", "154406.262500", "154408.262500", "154410.262500", "154412.262500", "154414.262500", "154416.262500", "154418.262500", "154420.262500", "154422.262500", "154424.262500", "154426.262500", "154428.262500", "154430.262500", "154432.262500", "154434.262500", "154436.262500", "154438.262500", "154440.262500", "154442.262500", "154444.262500", "154446.262500", "154448.262500", "154450.262500", "154452.262500", "154454.262500", "154456.262500", "154458.262500", "154500.262500", "154502.262500", "154504.262500", "154506.262500", "154508.262500", "154510.262500", "154512.262500", "154514.262500", "154516.262500", "154518.262500", "154520.262500", "154522.262500", "154524.262500", "154526.262500", "154528.262500", "154530.262500", "154532.262500", "154534.262500", "154536.262500", "154538.262500", "154540.262500", "154542.262500", "154544.262500", "154546.262500", "154548.262500", "154550.262500", "154552.262500", "154554.262500", "154556.262500", "154558.262500", "154600.262500", "154602.262500", "154604.262500", "154606.262500", "154608.262500", "154610.262500", "154612.262500", "154614.262500", "154616.262500", "154618.262500", "154620.262500", "154622.262500", "154624.262500", "154626.262500", "154628.262500", "154630.262500", "154632.262500", "154634.262500", "154636.262500", "154638.262500", "154640.262500", "154642.262500", "154644.262500", "154646.262500", "154648.262500", "154650.262500", "154652.262500", "154654.262500", "154656.262500", "154658.262500", "154700.262500", "154702.262500", "154704.262500", "154706.262500", "154708.262500", "154710.262500", "154712.262500", "154714.262500", "154716.262500", "154718.262500", "154720.262500", "154722.262500", "154724.262500", "154726.262500", "154728.262500", "154730.262500", "154732.262500", "154734.262500", "154736.262500", "154738.262500", "154740.262500", "154742.262500", "154744.262500", "154746.262500", "154748.262500", "154750.262500", "154752.265000", "154754.265000", "154756.265000", "154758.265000", "154800.265000", "154802.265000", "154804.265000", "154806.265000", "154808.265000", "154810.265000", "154812.265000", "154814.265000", "154816.265000", "154818.265000", "154820.265000", "154822.265000", "154824.265000", "154826.265000", "154828.265000", "154830.265000", "154832.265000", "154834.265000", "154836.265000", "154838.265000", "154840.265000", "154842.265000", "154844.265000", "154846.265000", "154848.265000", "154850.265000", "154852.265000", "154854.265000", "154856.265000", "154858.265000", "154900.265000", "154902.265000", "154904.265000", "154906.265000", "154908.265000", "154910.265000", "154912.265000", "154914.265000", "154916.265000", "154918.265000", "154920.265000", "154922.265000", "154924.265000"],
      "ContentTime": ["154225.989000", "154226.982000", "154227.981000", "154227.985000", "154228.980000", "154229.982000", "154229.987000", "154230.982000", "154231.983000", "154232.982000", "154233.980000", "154235.481000", "154237.482000", "154239.482000", "154241.482000", "154243.482000", "154245.482000", "154247.483000", "154249.483000", "154251.482000", "154253.482000", "154255.482000", "154257.482000", "154259.482000", "154301.482000", "154303.482000", "154305.483000", "154307.483000", "154309.482000", "154311.481000", "154313.481000", "154315.481000", "154317.481000", "154319.481000", "154321.481000", "154323.482000", "154325.482000", "154327.481000", "154329.481000", "154331.481000", "154333.481000", "154335.481000", "154337.481000", "154339.481000", "154341.482000", "154343.482000", "154345.481000", "154347.482000", "154349.482000", "154351.482000", "154353.482000", "154355.482000", "154357.483000", "154359.483000", "154401.482000", "154403.482000", "154405.482000", "154407.482000", "154409.482000", "154411.481000", "154413.482000", "154415.483000", "154417.484000", "154419.482000", "154421.482000", "154423.482000", "154425.482000", "154427.482000", "154429.482000", "154431.483000", "154433.483000", "154435.483000", "154437.483000", "154439.482000", "154441.482000", "154443.482000", "154445.482000", "154447.483000", "154449.482000", "154451.483000", "154453.483000", "154455.483000", "154457.483000", "154459.482000", "154501.482000", "154503.483000", "154505.482000", "154507.483000", "154509.483000", "154511.482000", "154513.482000", "154515.482000", "154517.482000", "154519.482000", "154521.482000", "154523.482000", "154525.483000", "154527.483000", "154529.482000", "154531.482000", "154533.482000", "154535.482000", "154537.482000", "154539.482000", "154541.482000", "154543.483000", "154545.483000", "154547.480000", "154549.483000", "154551.482000", "154553.482000", "154555.482000", "154557.480000", "154559.483000", "154601.483000", "154603.484000", "154605.482000", "154607.482000", "154609.482000", "154611.483000", "154613.481000", "154615.482000", "154617.483000", "154619.483000", "154621.482000", "154623.482000", "154625.482000", "154627.482000", "154629.482000", "154631.482000", "154633.482000", "154635.483000", "154637.483000", "154639.482000", "154641.482000", "154643.482000", "154645.482000", "154647.482000", "154649.483000", "154651.482000", "154653.483000", "154655.483000", "154657.482000", "154659.483000", "154701.482000", "154703.482000", "154705.483000", "154707.483000", "154709.483000", "154711.483000", "154713.483000", "154715.482000", "154717.482000", "154719.482000", "154721.481000", "154723.482000", "154725.482000", "154727.483000", "154729.483000", "154731.482000", "154733.483000", "154735.482000", "154737.482000", "154739.482000", "154741.482000", "154743.482000", "154745.483000", "154747.481000", "154749.482000", "154751.482000", "154753.482000", "154755.483000", "154757.482000", "154759.482000", "154801.482000", "154803.484000", "154805.483000", "154807.482000", "154809.482000", "154811.482000", "154813.482000", "154815.481000", "154817.482000", "154819.483000", "154821.483000", "154823.483000", "154825.482000", "154827.492000", "154829.482000", "154831.482000", "154833.482000", "154835.482000", "154837.484000", "154839.483000", "154841.482000", "154843.483000", "154845.483000", "154847.483000", "154849.482000", "154851.482000", "154853.483000", "154855.483000", "154857.483000", "154859.482000", "154901.482000", "154903.482000", "154905.482000", "154907.482000", "154909.482000", "154911.482000", "154913.484000", "154915.483000", "154917.482000", "154919.482000", "154921.482000", "154923.482000", "154925.482000", "154927.114000"],
      "InstanceCreationTime": ["154225.989000", "154226.982000", "154227.981000", "154227.985000", "154228.980000", "154229.982000", "154229.987000", "154230.982000", "154231.983000", "154232.982000", "154233.980000", "154235.481000", "154237.482000", "154239.482000", "154241.482000", "154243.482000", "154245.482000", "154247.483000", "154249.483000", "154251.482000", "154253.482000", "154255.482000", "154257.482000", "154259.482000", "154301.482000", "154303.482000", "154305.483000", "154307.483000", "154309.482000", "154311.481000", "154313.481000", "154315.481000", "154317.481000", "154319.481000", "154321.481000", "154323.482000", "154325.482000", "154327.481000", "154329.481000", "154331.481000", "154333.481000", "154335.481000", "154337.481000", "154339.481000", "154341.482000", "154343.482000", "154345.481000", "154347.482000", "154349.482000", "154351.482000", "154353.482000", "154355.482000", "154357.483000", "154359.483000", "154401.482000", "154403.482000", "154405.482000", "154407.482000", "154409.482000", "154411.481000", "154413.482000", "154415.483000", "154417.484000", "154419.482000", "154421.482000", "154423.482000", "154425.482000", "154427.482000", "154429.482000", "154431.483000", "154433.483000", "154435.483000", "154437.483000", "154439.482000", "154441.482000", "154443.482000", "154445.482000", "154447.483000", "154449.482000", "154451.483000", "154453.483000", "154455.483000", "154457.483000", "154459.482000", "154501.482000", "154503.483000", "154505.482000", "154507.483000", "154509.483000", "154511.482000", "154513.482000", "154515.482000", "154517.482000", "154519.482000", "154521.482000", "154523.482000", "154525.483000", "154527.483000", "154529.482000", "154531.482000", "154533.482000", "154535.482000", "154537.482000", "154539.482000", "154541.482000", "154543.483000", "154545.483000", "154547.480000", "154549.483000", "154551.482000", "154553.482000", "154555.482000", "154557.480000", "154559.483000", "154601.483000", "154603.484000", "154605.482000", "154607.482000", "154609.482000", "154611.483000", "154613.481000", "154615.482000", "154617.483000", "154619.483000", "154621.482000", "154623.482000", "154625.482000", "154627.482000", "154629.482000", "154631.482000", "154633.482000", "154635.483000", "154637.483000", "154639.482000", "154641.482000", "154643.482000", "154645.482000", "154647.482000", "154649.483000", "154651.482000", "154653.483000", "154655.483000", "154657.482000", "154659.483000", "154701.482000", "154703.482000", "154705.483000", "154707.483000", "154709.483000", "154711.483000", "154713.483000", "154715.482000", "154717.482000", "154719.482000", "154721.481000", "154723.482000", "154725.482000", "154727.483000", "154729.483000", "154731.482000", "154733.483000", "154735.482000", "154737.482000", "154739.482000", "154741.482000", "154743.482000", "154745.483000", "154747.481000", "154749.482000", "154751.482000", "154753.482000", "154755.483000", "154757.482000", "154759.482000", "154801.482000", "154803.484000", "154805.483000", "154807.482000", "154809.482000", "154811.482000", "154813.482000", "154815.481000", "154817.482000", "154819.483000", "154821.483000", "154823.483000", "154825.482000", "154827.492000", "154829.482000", "154831.482000", "154833.482000", "154835.482000", "154837.484000", "154839.483000", "154841.482000", "154843.483000", "154845.483000", "154847.483000", "154849.482000", "154851.482000", "154853.483000", "154855.483000", "154857.483000", "154859.482000", "154901.482000", "154903.482000", "154905.482000", "154907.482000", "154909.482000", "154911.482000", "154913.484000", "154915.483000", "154917.482000", "154919.482000", "154921.482000", "154923.482000", "154925.482000", "154927.114000"],
      "InstanceNumber": [1, 2, 3, 4, 5, 6, 7, 8, 9, 10, 11, 12, 13, 14, 15, 16, 17, 18, 19, 20, 21, 22, 23, 24, 25, 26, 27, 28, 29, 30, 31, 32, 33, 34, 35, 36, 37, 38, 39, 40, 41, 42, 43, 44, 45, 46, 47, 48, 49, 50, 51, 52, 53, 54, 55, 56, 57, 58, 59, 60, 61, 62, 63, 64, 65, 66, 67, 68, 69, 70, 71, 72, 73, 74, 75, 76, 77, 78, 79, 80, 81, 82, 83, 84, 85, 86, 87, 88, 89, 90, 91, 92, 93, 94, 95, 96, 97, 98, 99, 100, 101, 102, 103, 104, 105, 106, 107, 108, 109, 110, 111, 112, 113, 114, 115, 116, 117, 118, 119, 120, 121, 122, 123, 124, 125, 126, 127, 128, 129, 130, 131, 132, 133, 134, 135, 136, 137, 138, 139, 140, 141, 142, 143, 144, 145, 146, 147, 148, 149, 150, 151, 152, 153, 154, 155, 156, 157, 158, 159, 160, 161, 162, 163, 164, 165, 166, 167, 168, 169, 170, 171, 172, 173, 174, 175, 176, 177, 178, 179, 180, 181, 182, 183, 184, 185, 186, 187, 188, 189, 190, 191, 192, 193, 194, 195, 196, 197, 198, 199, 200, 201, 202, 203, 204, 205, 206, 207, 208, 209, 210, 211, 212, 213, 214, 215, 216, 217, 218],
      "WindowCenter": [15539.0, 15515.0, 15533.0, 15534.0, 15541.0, 15532.0, 15531.0, 15508.0, 15525.0, 15527.0, 15526.0, 15542.0, 15531.0, 15520.0, 15506.0, 15516.0, 15523.0, 15523.0, 15516.0, 15521.0, 15518.0, 15533.0, 15533.0, 15535.0, 15521.0, 15538.0, 15535.0, 15509.0, 15517.0, 15540.0, 15538.0, 15532.0, 15517.0, 15541.0, 15525.0, 15511.0, 15514.0, 15516.0, 15531.0, 15528.0, 15525.0, 15523.0, 15530.0, 15513.0, 15516.0, 15529.0, 15524.0, 15533.0, 15533.0, 15536.0, 15546.0, 15529.0, 15530.0, 15517.0, 15522.0, 15516.0, 15525.0, 15527.0, 15549.0, 15548.0, 15546.0, 15539.0, 15524.0, 15559.0, 15557.0, 15526.0, 15521.0, 15516.0, 15538.0, 15529.0, 15531.0, 15532.0, 15541.0, 15523.0, 15543.0, 15545.0, 15548.0, 15535.0, 15532.0, 15531.0, 15531.0, 15521.0, 15540.0, 15533.0, 15538.0, 15532.0, 15545.0, 15531.0, 15500.0, 15509.0, 15530.0, 15536.0, 15515.0, 15521.0, 15551.0, 15539.0, 15546.0, 15537.0, 15531.0, 15525.0, 15536.0, 15536.0, 15556.0, 15522.0, 15532.0, 15536.0, 15559.0, 15545.0, 15529.0, 15512.0, 15527.0, 15548.0, 15537.0, 15561.0, 15545.0, 15539.0, 15531.0, 15549.0, 15568.0, 15541.0, 15549.0, 15535.0, 15556.0, 15541.0, 15531.0, 15529.0, 15545.0, 15537.0, 15549.0, 15541.0, 15557.0, 15549.0, 15550.0, 15549.0, 15555.0, 15538.0, 15532.0, 15537.0, 15528.0, 15537.0, 15546.0, 15548.0, 15554.0, 15553.0, 15541.0, 15533.0, 15530.0, 15537.0, 15523.0, 15518.0, 15529.0, 15528.0, 15543.0, 15529.0, 15529.0, 15515.0, 15532.0, 15552.0, 15552.0, 15551.0, 15539.0, 15560.0, 15548.0, 15538.0, 15545.0, 15546.0, 15537.0, 15538.0, 15523.0, 15533.0, 15532.0, 15547.0, 15545.0, 15527.0, 15538.0, 15547.0, 15540.0, 15501.0, 15523.0, 15528.0, 15536.0, 15549.0, 15536.0, 15528.0, 15548.0, 15535.0, 15555.0, 15553.0, 15534.0, 15519.0, 15517.0, 15531.0, 15549.0, 15528.0, 15545.0, 15522.0, 15557.0, 15570.0, 15558.0, 15548.0, 15561.0, 15544.0, 15559.0, 15545.0, 15539.0, 15544.0, 15529.0, 15545.0, 15543.0, 15558.0, 15561.0, 15557.0, 15563.0, 15555.0, 15547.0, 15549.0, 15535.0, 15544.0],
      "WindowWidth": [45195.0, 45076.0, 45050.0, 45068.0, 45061.0, 45051.0, 45064.0, 45028.0, 45016.0, 44963.0, 44963.0, 44963.0, 44995.0, 44983.0, 44940.0, 44937.0, 44974.0, 44986.0, 45009.0, 45027.0, 45080.0, 45051.0, 45008.0, 44984.0, 45028.0, 45070.0, 45070.0, 45074.0, 45080.0, 45071.0, 45070.0, 45081.0, 45052.0, 45059.0, 45059.0, 45032.0, 45019.0, 45062.0, 45008.0, 45047.0, 45060.0, 44989.0, 44952.0, 44991.0, 45036.0, 45034.0, 45057.0, 45080.0, 45068.0, 44978.0, 45124.0, 45064.0, 45093.0, 45095.0, 45113.0, 45163.0, 45172.0, 45174.0, 45151.0, 45108.0, 45064.0, 45029.0, 45043.0, 45020.0, 44993.0, 45005.0, 45012.0, 45035.0, 45041.0, 45036.0, 45036.0, 45008.0, 45003.0, 45004.0, 45007.0, 45022.0, 45024.0, 45055.0, 45037.0, 45034.0, 44992.0, 45026.0, 45029.0, 44983.0, 44973.0, 44981.0, 45007.0, 44979.0, 44979.0, 44987.0, 44979.0, 44999.0, 45021.0, 44962.0, 45055.0, 45032.0, 45066.0, 45044.0, 45036.0, 45059.0, 45068.0, 45083.0, 45115.0, 45140.0, 45077.0, 45038.0, 45018.0, 45035.0, 45020.0, 45017.0, 45003.0, 45008.0, 45001.0, 45009.0, 45038.0, 45018.0, 45036.0, 45054.0, 45042.0, 45077.0, 45081.0, 45054.0, 45032.0, 45030.0, 45006.0, 44961.0, 44977.0, 44984.0, 44995.0, 45017.0, 45004.0, 44983.0, 44938.0, 44967.0, 44961.0, 44944.0, 44923.0, 44870.0, 44850.0, 44833.0, 44898.0, 44942.0, 44976.0, 44989.0, 45004.0, 45010.0, 45035.0, 45068.0, 45100.0, 45121.0, 45134.0, 45174.0, 45131.0, 45119.0, 45043.0, 45003.0, 45021.0, 45042.0, 45072.0, 45054.0, 45043.0, 44992.0, 45008.0, 44987.0, 44967.0, 44981.0, 44971.0, 44985.0, 44988.0, 44996.0, 45022.0, 45037.0, 45037.0, 45032.0, 44985.0, 45009.0, 45000.0, 44992.0, 44999.0, 45018.0, 45027.0, 44981.0, 44984.0, 44990.0, 44938.0, 44929.0, 44946.0, 44944.0, 44939.0, 44911.0, 44936.0, 44938.0, 44968.0, 44975.0, 44977.0, 44984.0, 44948.0, 44962.0, 44935.0, 44957.0, 44969.0, 44981.0, 44994.0, 45009.0, 45059.0, 45035.0, 45034.0, 45035.0, 45062.0, 45033.0, 44980.0, 44948.0, 44996.0, 45032.0, 45024.0, 45025.0, 45028.0, 45078.0]
    },
    "slices": {}
  }
}