{
  "AcquisitionMatrixPE": 116,
  "AcquisitionNumber": 1,
  "AcquisitionTime": "16:07:51.315000",
  "BandwidthPerPixelPhaseEncode": 18.539,
  "BaseResolution": 116,
  "BodyPartExamined": "HEAD",
  "ConsistencyInfo": "N4_VD13D_LATEST_20130810",
  "ConversionSoftware": "dcm2niix",
  "ConversionSoftwareVersion": "v1.0.20190410  (JP2:OpenJPEG) (JP-LS:CharLS) GCC5.5.0",
  "DerivedVendorReportedEchoSpacing": 0.000930006,
  "DeviceSerialNumber": "66014",
  "DwellTime": 3e-06,
  "EchoTime": 0.03,
  "EchoTrainLength": 50,
  "EffectiveEchoSpacing": 0.000465003,
  "FlipAngle": 81,
  "ImageComments": "Unaliased_MB3_PE4",
  "ImageOrientationPatientDICOM": [0.994629, 0.0546724, -0.0878872, -0.0590919, 0.997074, -0.0484953],
  "ImageType": [
    "ORIGINAL",
    "PRIMARY",
    "M",
    "MB",
    "ND",
    "MOSAIC"
],
  "ImagingFrequency": 123.261,
  "InPlanePhaseEncodingDirectionDICOM": "COL",
  "InstitutionAddress": "Yiheyuan_Road_5_Beijing_Haidian_CN_100871",
  "InstitutionName": "Peking_University",
  "InstitutionalDepartmentName": "Department",
  "MRAcquisitionType": "2D",
  "MagneticFieldStrength": 3,
  "Manufacturer": "Siemens",
  "ManufacturersModelName": "Prisma",
  "Modality": "MR",
  "MultibandAccelerationFactor": 3,
  "ParallelReductionFactorInPlane": 2,
  "PartialFourier": 0.875,
  "PatientPosition": "HFS",
  "PercentPhaseFOV": 100,
  "PhaseEncodingDirection": "j-",
  "PhaseEncodingSteps": 101,
  "PhaseResolution": 1,
  "PixelBandwidth": 1435,
  "ProcedureStepDescription": "Research_Projects_64CH",
  "ProtocolName": "mbep2d_bold_MB3_learn5",
  "PulseSequenceDetails": "%CustomerSeq%_cmrr_mbep2d_bold",
  "ReceiveCoilActiveElements": "HC1-7",
  "ReceiveCoilName": "HeadNeck_64",
  "ReconMatrixPE": 116,
  "RefLinesPE": 44,
  "RepetitionTime": 2,
  "SAR": 0.0475238,
  "ScanOptions": "PFP_FS",
  "ScanningSequence": "EP",
  "SequenceName": "epfid2d1_116",
  "SequenceVariant": "SK_SS",
  "SeriesDescription": "mbep2d_bold_MB3_learn5",
  "SeriesNumber": 10,
  "ShimSetting": [-3472, -2112, -1950, 328, -76, -161, -14, 30],
  "SliceThickness": 1.9,
  "SliceTiming": [0, 0.9075, 1.815, 0.7425, 1.65, 0.5775, 1.485, 0.4125, 1.32, 0.2475, 1.155, 0.0825, 0.99, 1.8975, 0.825, 1.7325, 0.66, 1.5675, 0.495, 1.4025, 0.33, 1.2375, 0.165, 1.0725, 0, 0.9075, 1.815, 0.7425, 1.65, 0.5775, 1.485, 0.4125, 1.32, 0.2475, 1.155, 0.0825, 0.99, 1.8975, 0.825, 1.7325, 0.66, 1.5675, 0.495, 1.4025, 0.33, 1.2375, 0.165, 1.0725, 0, 0.9075, 1.815, 0.7425, 1.65, 0.5775, 1.485, 0.4125, 1.32, 0.2475, 1.155, 0.0825, 0.99, 1.8975, 0.825, 1.7325, 0.66, 1.5675, 0.495, 1.4025, 0.33, 1.2375, 0.165, 1.0725],
  "SoftwareVersions": "syngo_MR_D13D",
  "SpacingBetweenSlices": 1.9,
  "StationName": "AWP66014",
  "TaskName": "updating",
  "TotalReadoutTime": 0.0534753,
  "TxRefAmp": 214.158,
  "WipMemBlock": "94b16b95-ab3f-4a84-844d-bfea6557cbbe||Sequence: vd13d/master r/0735857; Nov 19 2014 09:21:40 by eja",
  "dcmmeta_affine": [
    [-1.886365294456482, -0.11207089573144913, -0.16145944595336914, 120.96133422851562],
    [-0.1036890521645546, 1.8910021781921387, -0.10151363164186478, -90.0372543334961],
    [-0.16668257117271423, 0.09197379648685455, 1.8904036283493042, -70.83676147460938],
    [0.0, 0.0, 0.0, 1.0]
],
  "dcmmeta_reorient_transform": [
    [0.0, -1.0, 0.0, 115.0],
    [1.0, 0.0, 0.0, 0.0],
    [0.0, 0.0, 1.0, 0.0],
    [0.0, 0.0, 0.0, 1.0]
],
  "dcmmeta_shape": [116, 116, 72, 218],
  "dcmmeta_slice_dim": 2,
  "dcmmeta_version": 0.6,
  "global": {
    "const": {
      "AcquisitionMatrix": [116, 0, 0, 116],
      "AngioFlag": "N",
      "BitsAllocated": 16,
      "BitsStored": 16,
      "BodyPartExamined": "HEAD",
      "Columns": 1044,
      "EchoNumbers": 1,
      "EchoTime": 30.0,
      "EchoTrainLength": 50,
      "FlipAngle": 81.0,
      "HighBit": 15,
      "ImageOrientationPatient": [0.99462896194531, 0.0546724072875, -0.0878871773411, -0.0590919279825, 0.99707389509351, -0.048495275753],
      "ImagePositionPatient": [-931.34577486065, -1052.964751076, 59.756788035526],
      "ImageType": [
        "ORIGINAL",
        "PRIMARY",
        "M",
        "MB",
        "ND",
        "MOSAIC"
],
      "ImagedNucleus": "1H",
      "ImagingFrequency": 123.26062,
      "InPlanePhaseEncodingDirection": "COL",
      "LargestImagePixelValue": 65535,
      "MRAcquisitionType": "2D",
      "MagneticFieldStrength": 3.0,
      "Manufacturer": "SIEMENS",
      "ManufacturerModelName": "Prisma",
      "Modality": "MR",
      "NumberOfAverages": 1.0,
      "NumberOfPhaseEncodingSteps": 101,
      "PercentPhaseFieldOfView": 100.0,
      "PercentSampling": 100.0,
      "PerformedProcedureStepStartTime": "151003.579000",
      "PhotometricInterpretation": "MONOCHROME2",
      "PixelBandwidth": 1435.0,
      "PixelRepresentation": 0,
      "PixelSpacing": [1.8965517282486, 1.8965517282486],
      "ProtocolName": "mbep2d_bold_MB3_learn5",
      "RepetitionTime": 2000.0,
      "Rows": 1044,
      "SAR": 0.04752378372179,
      "SamplesPerPixel": 1,
      "ScanOptions": [
        "PFP",
        "FS"
],
      "ScanningSequence": "EP",
      "SequenceName": "epfid2d1_116",
      "SequenceVariant": [
        "SK",
        "SS"
],
      "SeriesDescription": "mbep2d_bold_MB3_learn5",
      "SeriesNumber": 10,
      "SeriesTime": "160807.035000",
      "SliceLocation": -75.947581592974,
      "SliceThickness": 1.8999999761581,
      "SmallestImagePixelValue": 0,
      "SoftwareVersions": "syngo MR D13D",
      "SpacingBetweenSlices": 1.8999999725544,
      "SpecificCharacterSet": "ISO_IR 100",
      "StudyID": "1",
      "StudyTime": "151003.509000",
      "TimeOfLastCalibration": ["123723.000000", "123723.000000"],
      "TransmitCoilName": "Body",
      "VariableFlipAngleFlag": "N",
      "WindowCenterWidthExplanation": "Algo1",
      "dBdt": 0.0},
    "slices": {}
  },
  "time": {
    "samples": {
      "AcquisitionNumber": [1, 2, 3, 4, 5, 6, 7, 8, 9, 10, 11, 12, 13, 14, 15, 16, 17, 18, 19, 20, 21, 22, 23, 24, 25, 26, 27, 28, 29, 30, 31, 32, 33, 34, 35, 36, 37, 38, 39, 40, 41, 42, 43, 44, 45, 46, 47, 48, 49, 50, 51, 52, 53, 54, 55, 56, 57, 58, 59, 60, 61, 62, 63, 64, 65, 66, 67, 68, 69, 70, 71, 72, 73, 74, 75, 76, 77, 78, 79, 80, 81, 82, 83, 84, 85, 86, 87, 88, 89, 90, 91, 92, 93, 94, 95, 96, 97, 98, 99, 100, 101, 102, 103, 104, 105, 106, 107, 108, 109, 110, 111, 112, 113, 114, 115, 116, 117, 118, 119, 120, 121, 122, 123, 124, 125, 126, 127, 128, 129, 130, 131, 132, 133, 134, 135, 136, 137, 138, 139, 140, 141, 142, 143, 144, 145, 146, 147, 148, 149, 150, 151, 152, 153, 154, 155, 156, 157, 158, 159, 160, 161, 162, 163, 164, 165, 166, 167, 168, 169, 170, 171, 172, 173, 174, 175, 176, 177, 178, 179, 180, 181, 182, 183, 184, 185, 186, 187, 188, 189, 190, 191, 192, 193, 194, 195, 196, 197, 198, 199, 200, 201, 202, 203, 204, 205, 206, 207, 208, 209, 210, 211, 212, 213, 214, 215, 216, 217, 218],
      "AcquisitionTime": ["160751.315000", "160753.315000", "160755.315000", "160757.315000", "160759.315000", "160801.315000", "160803.315000", "160805.315000", "160807.315000", "160809.315000", "160811.315000", "160813.315000", "160815.315000", "160817.315000", "160819.315000", "160821.315000", "160823.315000", "160825.315000", "160827.315000", "160829.315000", "160831.315000", "160833.315000", "160835.315000", "160837.315000", "160839.315000", "160841.315000", "160843.315000", "160845.315000", "160847.315000", "160849.315000", "160851.315000", "160853.315000", "160855.315000", "160857.315000", "160859.315000", "160901.315000", "160903.315000", "160905.315000", "160907.315000", "160909.315000", "160911.315000", "160913.315000", "160915.315000", "160917.315000", "160919.315000", "160921.315000", "160923.315000", "160925.315000", "160927.315000", "160929.315000", "160931.315000", "160933.315000", "160935.315000", "160937.315000", "160939.315000", "160941.315000", "160943.315000", "160945.315000", "160947.315000", "160949.317500", "160951.317500", "160953.317500", "160955.317500", "160957.317500", "160959.317500", "161001.317500", "161003.317500", "161005.317500", "161007.317500", "161009.317500", "161011.317500", "161013.317500", "161015.317500", "161017.317500", "161019.317500", "161021.317500", "161023.317500", "161025.317500", "161027.317500", "161029.317500", "161031.317500", "161033.317500", "161035.317500", "161037.317500", "161039.317500", "161041.317500", "161043.317500", "161045.317500", "161047.317500", "161049.317500", "161051.317500", "161053.317500", "161055.317500", "161057.317500", "161059.317500", "161101.317500", "161103.317500", "161105.317500", "161107.317500", "161109.317500", "161111.317500", "161113.317500", "161115.317500", "161117.317500", "161119.317500", "161121.317500", "161123.317500", "161125.317500", "161127.317500", "161129.317500", "161131.317500", "161133.317500", "161135.317500", "161137.317500", "161139.317500", "161141.317500", "161143.317500", "161145.317500", "161147.317500", "161149.317500", "161151.317500", "161153.317500", "161155.317500", "161157.317500", "161159.317500", "161201.317500", "161203.317500", "161205.317500", "161207.317500", "161209.317500", "161211.317500", "161213.317500", "161215.317500", "161217.317500", "161219.317500", "161221.317500", "161223.317500", "161225.317500", "161227.317500", "161229.317500", "161231.317500", "161233.317500", "161235.317500", "161237.317500", "161239.317500", "161241.317500", "161243.317500", "161245.317500", "161247.317500", "161249.317500", "161251.317500", "161253.317500", "161255.317500", "161257.317500", "161259.317500", "161301.317500", "161303.317500", "161305.317500", "161307.317500", "161309.317500", "161311.317500", "161313.317500", "161315.317500", "161317.317500", "161319.317500", "161321.317500", "161323.317500", "161325.317500", "161327.317500", "161329.317500", "161331.317500", "161333.317500", "161335.317500", "161337.317500", "161339.317500", "161341.317500", "161343.317500", "161345.317500", "161347.317500", "161349.317500", "161351.317500", "161353.317500", "161355.317500", "161357.317500", "161359.317500", "161401.317500", "161403.317500", "161405.317500", "161407.317500", "161409.317500", "161411.317500", "161413.317500", "161415.317500", "161417.317500", "161419.317500", "161421.317500", "161423.317500", "161425.317500", "161427.317500", "161429.317500", "161431.317500", "161433.317500", "161435.317500", "161437.317500", "161439.317500", "161441.317500", "161443.317500", "161445.317500", "161447.317500", "161449.317500", "161451.317500", "161453.317500", "161455.317500", "161457.317500", "161459.317500", "161501.317500", "161503.317500", "161505.317500"],
      "ContentTime": ["160807.041000", "160808.034000", "160808.038000", "160809.035000", "160810.034000", "160810.038000", "160811.034000", "160812.034000", "160813.034000", "160814.035000", "160815.033000", "160816.535000", "160818.535000", "160820.535000", "160822.534000", "160824.534000", "160826.536000", "160828.536000", "160830.535000", "160832.535000", "160834.535000", "160836.535000", "160838.534000", "160840.534000", "160842.534000", "160844.535000", "160846.535000", "160848.535000", "160850.536000", "160852.535000", "160854.535000", "160856.534000", "160858.534000", "160900.534000", "160902.534000", "160904.535000", "160906.535000", "160908.535000", "160910.535000", "160912.535000", "160914.534000", "160916.534000", "160918.534000", "160920.535000", "160922.535000", "160924.535000", "160926.535000", "160928.534000", "160930.534000", "160932.534000", "160934.534000", "160936.535000", "160938.535000", "160940.535000", "160942.535000", "160944.534000", "160946.535000", "160948.535000", "160950.534000", "160952.534000", "160954.535000", "160956.535000", "160958.535000", "161000.535000", "161002.535000", "161004.536000", "161006.534000", "161008.534000", "161010.534000", "161012.535000", "161014.535000", "161016.536000", "161018.535000", "161020.535000", "161022.534000", "161024.534000", "161026.533000", "161028.535000", "161030.535000", "161032.535000", "161034.535000", "161036.534000", "161038.534000", "161040.534000", "161042.532000", "161044.535000", "161046.536000", "161048.535000", "161050.535000", "161052.535000", "161054.535000", "161056.536000", "161058.534000", "161100.534000", "161102.534000", "161104.535000", "161106.535000", "161108.535000", "161110.535000", "161112.535000", "161114.535000", "161116.534000", "161118.535000", "161120.534000", "161122.535000", "161124.535000", "161126.535000", "161128.535000", "161130.535000", "161132.535000", "161134.534000", "161136.535000", "161138.534000", "161140.535000", "161142.535000", "161144.535000", "161146.535000", "161148.535000", "161150.534000", "161152.534000", "161154.534000", "161156.535000", "161158.536000", "161200.535000", "161202.535000", "161204.535000", "161206.535000", "161208.534000", "161210.534000", "161212.534000", "161214.535000", "161216.535000", "161218.535000", "161220.535000", "161222.535000", "161224.535000", "161226.534000", "161228.534000", "161230.535000", "161232.535000", "161234.535000", "161236.536000", "161238.535000", "161240.535000", "161242.533000", "161244.534000", "161246.534000", "161248.535000", "161250.535000", "161252.535000", "161254.536000", "161256.535000", "161258.535000", "161300.534000", "161302.542000", "161304.534000", "161306.535000", "161308.535000", "161310.535000", "161312.536000", "161314.535000", "161316.535000", "161318.534000", "161320.534000", "161322.534000", "161324.535000", "161326.535000", "161328.535000", "161330.535000", "161332.535000", "161334.536000", "161336.534000", "161338.534000", "161340.535000", "161342.534000", "161344.535000", "161346.535000", "161348.535000", "161350.535000", "161352.534000", "161354.534000", "161356.534000", "161358.535000", "161400.535000", "161402.535000", "161404.535000", "161406.535000", "161408.535000", "161410.534000", "161412.535000", "161414.534000", "161416.535000", "161418.535000", "161420.535000", "161422.535000", "161424.535000", "161426.535000", "161428.534000", "161430.534000", "161432.534000", "161434.535000", "161436.535000", "161438.536000", "161440.535000", "161442.535000", "161444.535000", "161446.534000", "161448.534000", "161450.535000", "161452.535000", "161454.535000", "161456.534000", "161458.535000", "161500.535000", "161502.534000", "161504.534000", "161506.534000", "161508.247000"],
      "InstanceCreationTime": ["160807.041000", "160808.034000", "160808.038000", "160809.035000", "160810.034000", "160810.038000", "160811.034000", "160812.034000", "160813.034000", "160814.035000", "160815.033000", "160816.535000", "160818.535000", "160820.535000", "160822.534000", "160824.534000", "160826.536000", "160828.536000", "160830.535000", "160832.535000", "160834.535000", "160836.535000", "160838.534000", "160840.534000", "160842.534000", "160844.535000", "160846.535000", "160848.535000", "160850.536000", "160852.535000", "160854.535000", "160856.534000", "160858.534000", "160900.534000", "160902.534000", "160904.535000", "160906.535000", "160908.535000", "160910.535000", "160912.535000", "160914.534000", "160916.534000", "160918.534000", "160920.535000", "160922.535000", "160924.535000", "160926.535000", "160928.534000", "160930.534000", "160932.534000", "160934.534000", "160936.535000", "160938.535000", "160940.535000", "160942.535000", "160944.534000", "160946.535000", "160948.535000", "160950.534000", "160952.534000", "160954.535000", "160956.535000", "160958.535000", "161000.535000", "161002.535000", "161004.536000", "161006.534000", "161008.534000", "161010.534000", "161012.535000", "161014.535000", "161016.536000", "161018.535000", "161020.535000", "161022.534000", "161024.534000", "161026.533000", "161028.535000", "161030.535000", "161032.535000", "161034.535000", "161036.534000", "161038.534000", "161040.534000", "161042.532000", "161044.535000", "161046.536000", "161048.535000", "161050.535000", "161052.535000", "161054.535000", "161056.536000", "161058.534000", "161100.534000", "161102.534000", "161104.535000", "161106.535000", "161108.535000", "161110.535000", "161112.535000", "161114.535000", "161116.534000", "161118.535000", "161120.534000", "161122.535000", "161124.535000", "161126.535000", "161128.535000", "161130.535000", "161132.535000", "161134.534000", "161136.535000", "161138.534000", "161140.535000", "161142.535000", "161144.535000", "161146.535000", "161148.535000", "161150.534000", "161152.534000", "161154.534000", "161156.535000", "161158.536000", "161200.535000", "161202.535000", "161204.535000", "161206.535000", "161208.534000", "161210.534000", "161212.534000", "161214.535000", "161216.535000", "161218.535000", "161220.535000", "161222.535000", "161224.535000", "161226.534000", "161228.534000", "161230.535000", "161232.535000", "161234.535000", "161236.536000", "161238.535000", "161240.535000", "161242.533000", "161244.534000", "161246.534000", "161248.535000", "161250.535000", "161252.535000", "161254.536000", "161256.535000", "161258.535000", "161300.534000", "161302.542000", "161304.534000", "161306.535000", "161308.535000", "161310.535000", "161312.536000", "161314.535000", "161316.535000", "161318.534000", "161320.534000", "161322.534000", "161324.535000", "161326.535000", "161328.535000", "161330.535000", "161332.535000", "161334.536000", "161336.534000", "161338.534000", "161340.535000", "161342.534000", "161344.535000", "161346.535000", "161348.535000", "161350.535000", "161352.534000", "161354.534000", "161356.534000", "161358.535000", "161400.535000", "161402.535000", "161404.535000", "161406.535000", "161408.535000", "161410.534000", "161412.535000", "161414.534000", "161416.535000", "161418.535000", "161420.535000", "161422.535000", "161424.535000", "161426.535000", "161428.534000", "161430.534000", "161432.534000", "161434.535000", "161436.535000", "161438.536000", "161440.535000", "161442.535000", "161444.535000", "161446.534000", "161448.534000", "161450.535000", "161452.535000", "161454.535000", "161456.534000", "161458.535000", "161500.535000", "161502.534000", "161504.534000", "161506.534000", "161508.247000"],
      "InstanceNumber": [1, 2, 3, 4, 5, 6, 7, 8, 9, 10, 11, 12, 13, 14, 15, 16, 17, 18, 19, 20, 21, 22, 23, 24, 25, 26, 27, 28, 29, 30, 31, 32, 33, 34, 35, 36, 37, 38, 39, 40, 41, 42, 43, 44, 45, 46, 47, 48, 49, 50, 51, 52, 53, 54, 55, 56, 57, 58, 59, 60, 61, 62, 63, 64, 65, 66, 67, 68, 69, 70, 71, 72, 73, 74, 75, 76, 77, 78, 79, 80, 81, 82, 83, 84, 85, 86, 87, 88, 89, 90, 91, 92, 93, 94, 95, 96, 97, 98, 99, 100, 101, 102, 103, 104, 105, 106, 107, 108, 109, 110, 111, 112, 113, 114, 115, 116, 117, 118, 119, 120, 121, 122, 123, 124, 125, 126, 127, 128, 129, 130, 131, 132, 133, 134, 135, 136, 137, 138, 139, 140, 141, 142, 143, 144, 145, 146, 147, 148, 149, 150, 151, 152, 153, 154, 155, 156, 157, 158, 159, 160, 161, 162, 163, 164, 165, 166, 167, 168, 169, 170, 171, 172, 173, 174, 175, 176, 177, 178, 179, 180, 181, 182, 183, 184, 185, 186, 187, 188, 189, 190, 191, 192, 193, 194, 195, 196, 197, 198, 199, 200, 201, 202, 203, 204, 205, 206, 207, 208, 209, 210, 211, 212, 213, 214, 215, 216, 217, 218],
      "WindowCenter": [15599.0, 15587.0, 15601.0, 15602.0, 15586.0, 15589.0, 15580.0, 15576.0, 15582.0, 15590.0, 15594.0, 15582.0, 15574.0, 15570.0, 15573.0, 15567.0, 15547.0, 15547.0, 15568.0, 15594.0, 15565.0, 15582.0, 15567.0, 15591.0, 15566.0, 15565.0, 15549.0, 15556.0, 15564.0, 15576.0, 15575.0, 15584.0, 15579.0, 15579.0, 15584.0, 15576.0, 15576.0, 15579.0, 15584.0, 15578.0, 15584.0, 15563.0, 15542.0, 15563.0, 15580.0, 15589.0, 15584.0, 15589.0, 15576.0, 15565.0, 15574.0, 15581.0, 15572.0, 15562.0, 15572.0, 15565.0, 15563.0, 15578.0, 15595.0, 15601.0, 15575.0, 15582.0, 15573.0, 15576.0, 15592.0, 15583.0, 15591.0, 15576.0, 15571.0, 15557.0, 15589.0, 15593.0, 15579.0, 15587.0, 15576.0, 15571.0, 15571.0, 15561.0, 15569.0, 15580.0, 15598.0, 15581.0, 15590.0, 15578.0, 15582.0, 15576.0, 15571.0, 15573.0, 15572.0, 15572.0, 15593.0, 15577.0, 15581.0, 15588.0, 15592.0, 15570.0, 15582.0, 15589.0, 15582.0, 15580.0, 15578.0, 15580.0, 15565.0, 15579.0, 15585.0, 15576.0, 15582.0, 15583.0, 15595.0, 15599.0, 15597.0, 15598.0, 15585.0, 15573.0, 15564.0, 15583.0, 15597.0, 15575.0, 15563.0, 15564.0, 15579.0, 15577.0, 15589.0, 15577.0, 15574.0, 15584.0, 15593.0, 15586.0, 15572.0, 15588.0, 15592.0, 15580.0, 15593.0, 15605.0, 15586.0, 15581.0, 15593.0, 15586.0, 15617.0, 15611.0, 15598.0, 15599.0, 15587.0, 15575.0, 15591.0, 15601.0, 15582.0, 15594.0, 15603.0, 15573.0, 15570.0, 15601.0, 15610.0, 15587.0, 15593.0, 15588.0, 15583.0, 15589.0, 15590.0, 15594.0, 15608.0, 15603.0, 15601.0, 15590.0, 15613.0, 15593.0, 15595.0, 15596.0, 15584.0, 15585.0, 15579.0, 15602.0, 15589.0, 15607.0, 15592.0, 15595.0, 15611.0, 15594.0, 15594.0, 15595.0, 15613.0, 15616.0, 15617.0, 15597.0, 15615.0, 15605.0, 15599.0, 15595.0, 15591.0, 15604.0, 15585.0, 15594.0, 15606.0, 15601.0, 15600.0, 15594.0, 15588.0, 15596.0, 15594.0, 15590.0, 15607.0, 15603.0, 15609.0, 15597.0, 15599.0, 15604.0, 15619.0, 15637.0, 15607.0, 15605.0, 15600.0, 15596.0, 15589.0, 15609.0, 15382.0, 15467.0, 15429.0, 15396.0],
      "WindowWidth": [45143.0, 45091.0, 45103.0, 45078.0, 45036.0, 44968.0, 44960.0, 44984.0, 44990.0, 44999.0, 44972.0, 44962.0, 44971.0, 44980.0, 44983.0, 45004.0, 44999.0, 45027.0, 45004.0, 45000.0, 45004.0, 44963.0, 44908.0, 44902.0, 44947.0, 44945.0, 44945.0, 44966.0, 45004.0, 44986.0, 45013.0, 45023.0, 45031.0, 45057.0, 45048.0, 45041.0, 45026.0, 45029.0, 45063.0, 44998.0, 44988.0, 44829.0, 44954.0, 45057.0, 45072.0, 45039.0, 44979.0, 44998.0, 44960.0, 44976.0, 45026.0, 44988.0, 44966.0, 45014.0, 45010.0, 45016.0, 44972.0, 45016.0, 44989.0, 44965.0, 44941.0, 44932.0, 44968.0, 45014.0, 45013.0, 44990.0, 44997.0, 45040.0, 45063.0, 45081.0, 45083.0, 45087.0, 45072.0, 45064.0, 45098.0, 45135.0, 45135.0, 45113.0, 45106.0, 45115.0, 45075.0, 45046.0, 45023.0, 45071.0, 45059.0, 44982.0, 44891.0, 44807.0, 44810.0, 44870.0, 44861.0, 44902.0, 44949.0, 44982.0, 45000.0, 45022.0, 45032.0, 45025.0, 45032.0, 45031.0, 45056.0, 45058.0, 45087.0, 45058.0, 45036.0, 45070.0, 45075.0, 45048.0, 45047.0, 45080.0, 45105.0, 45062.0, 45020.0, 45024.0, 45017.0, 45048.0, 45034.0, 44999.0, 44985.0, 44973.0, 44985.0, 44986.0, 44996.0, 44970.0, 45022.0, 45048.0, 45042.0, 45007.0, 44978.0, 44938.0, 44985.0, 44974.0, 45001.0, 45013.0, 45054.0, 45103.0, 45099.0, 45093.0, 45051.0, 45033.0, 45106.0, 45091.0, 45080.0, 45067.0, 45054.0, 45035.0, 44934.0, 45059.0, 45079.0, 44883.0, 44994.0, 45107.0, 45084.0, 45036.0, 44986.0, 44995.0, 45004.0, 45010.0, 45067.0, 45056.0, 45042.0, 45039.0, 45050.0, 45051.0, 44976.0, 44931.0, 44919.0, 44948.0, 44992.0, 45007.0, 45031.0, 45037.0, 45081.0, 45083.0, 45071.0, 45030.0, 45002.0, 44877.0, 45045.0, 45102.0, 45131.0, 45089.0, 44992.0, 45005.0, 45051.0, 45054.0, 44976.0, 44957.0, 45011.0, 44996.0, 44993.0, 45031.0, 45053.0, 45062.0, 45047.0, 45057.0, 45051.0, 45058.0, 45055.0, 45039.0, 45041.0, 45039.0, 45098.0, 44973.0, 45004.0, 45010.0, 45052.0, 45026.0, 44898.0, 44855.0, 44881.0, 44879.0, 44927.0, 44740.0, 43580.0, 44255.0, 44424.0, 44127.0]
    },
    "slices": {}
  }
}