{
  "AcquisitionMatrixPE": 116,
  "AcquisitionNumber": 1,
  "AcquisitionTime": "19:05:29.872500",
  "BandwidthPerPixelPhaseEncode": 18.539,
  "BaseResolution": 116,
  "BodyPartExamined": "HEAD",
  "ConsistencyInfo": "N4_VD13D_LATEST_20130810",
  "ConversionSoftware": "dcm2niix",
  "ConversionSoftwareVersion": "v1.0.20190410  (JP2:OpenJPEG) (JP-LS:CharLS) GCC5.5.0",
  "DerivedVendorReportedEchoSpacing": 0.000930006,
  "DeviceSerialNumber": "66014",
  "DwellTime": 3e-06,
  "EchoTime": 0.03,
  "EchoTrainLength": 50,
  "EffectiveEchoSpacing": 0.000465003,
  "FlipAngle": 81,
  "ImageComments": "Unaliased_MB3_PE4",
  "ImageOrientationPatientDICOM": [0.999493, -0.0317501, -0.00224463, 0.0314103, 0.995285, -0.0917646],
  "ImageType": [
    "ORIGINAL",
    "PRIMARY",
    "M",
    "MB",
    "ND",
    "MOSAIC"
],
  "ImagingFrequency": 123.261,
  "InPlanePhaseEncodingDirectionDICOM": "COL",
  "InstitutionAddress": "Yiheyuan_Road_5_Beijing_Haidian_CN_100871",
  "InstitutionName": "Peking_University",
  "InstitutionalDepartmentName": "Department",
  "MRAcquisitionType": "2D",
  "MagneticFieldStrength": 3,
  "Manufacturer": "Siemens",
  "ManufacturersModelName": "Prisma",
  "Modality": "MR",
  "MultibandAccelerationFactor": 3,
  "ParallelReductionFactorInPlane": 2,
  "PartialFourier": 0.875,
  "PatientPosition": "HFS",
  "PercentPhaseFOV": 100,
  "PhaseEncodingDirection": "j-",
  "PhaseEncodingSteps": 101,
  "PhaseResolution": 1,
  "PixelBandwidth": 1435,
  "ProcedureStepDescription": "Research_Projects_64CH",
  "ProtocolName": "mbep2d_bold_MB3_learn1",
  "PulseSequenceDetails": "%CustomerSeq%_cmrr_mbep2d_bold",
  "ReceiveCoilActiveElements": "HC1-7",
  "ReceiveCoilName": "HeadNeck_64",
  "ReconMatrixPE": 116,
  "RefLinesPE": 44,
  "RepetitionTime": 2,
  "SAR": 0.0536427,
  "ScanOptions": "PFP_FS",
  "ScanningSequence": "EP",
  "SequenceName": "epfid2d1_116",
  "SequenceVariant": "SK_SS",
  "SeriesDescription": "mbep2d_bold_MB3_learn1",
  "SeriesNumber": 6,
  "ShimSetting": [-3446, -2103, -1997, 399, 17, -282, -57, 31],
  "SliceThickness": 1.9,
  "SliceTiming": [0, 0.9075, 1.815, 0.7425, 1.65, 0.5775, 1.485, 0.4125, 1.32, 0.2475, 1.155, 0.0825, 0.99, 1.8975, 0.825, 1.7325, 0.66, 1.5675, 0.495, 1.4025, 0.33, 1.2375, 0.165, 1.0725, 0, 0.9075, 1.815, 0.7425, 1.65, 0.5775, 1.485, 0.4125, 1.32, 0.2475, 1.155, 0.0825, 0.99, 1.8975, 0.825, 1.7325, 0.66, 1.5675, 0.495, 1.4025, 0.33, 1.2375, 0.165, 1.0725, 0, 0.9075, 1.815, 0.7425, 1.65, 0.5775, 1.485, 0.4125, 1.32, 0.2475, 1.155, 0.0825, 0.99, 1.8975, 0.825, 1.7325, 0.66, 1.5675, 0.495, 1.4025, 0.33, 1.2375, 0.165, 1.0725],
  "SoftwareVersions": "syngo_MR_D13D",
  "SpacingBetweenSlices": 1.9,
  "StationName": "AWP66014",
  "TaskName": "updating",
  "TotalReadoutTime": 0.0534753,
  "TxRefAmp": 240.895,
  "WipMemBlock": "be549474-de19-487a-916a-9e1acab2c6ba||Sequence: vd13d/master r/0735857; Nov 19 2014 09:21:40 by eja",
  "dcmmeta_affine": [
    [-1.8955907821655273, 0.05957132205367088, -0.00978040136396885, 106.5945053100586],
    [0.06021568924188614, 1.887609839439392, -0.1741303950548172, -98.74136352539062],
    [-0.004257054999470711, 0.17403626441955566, 1.8919786214828491, -87.89838409423828],
    [0.0, 0.0, 0.0, 1.0]
],
  "dcmmeta_reorient_transform": [
    [0.0, -1.0, 0.0, 115.0],
    [1.0, 0.0, 0.0, 0.0],
    [0.0, 0.0, 1.0, 0.0],
    [0.0, 0.0, 0.0, 1.0]
],
  "dcmmeta_shape": [116, 116, 72, 218],
  "dcmmeta_slice_dim": 2,
  "dcmmeta_version": 0.6,
  "global": {
    "const": {
      "AcquisitionMatrix": [116, 0, 0, 116],
      "AngioFlag": "N",
      "BitsAllocated": 16,
      "BitsStored": 16,
      "BodyPartExamined": "HEAD",
      "Columns": 1044,
      "EchoNumbers": 1,
      "EchoTime": 30.0,
      "EchoTrainLength": 50,
      "FlipAngle": 81.0,
      "HighBit": 15,
      "ImageOrientationPatient": [0.99949331834045, -0.0317500902882, -0.0022446290299, 0.03141033296032, 0.99528521222533, -0.0917645754575],
      "ImagePositionPatient": [-1020.6404185872, -966.24468626793, 14.843885288338],
      "ImageType": [
        "ORIGINAL",
        "PRIMARY",
        "M",
        "MB",
        "ND",
        "MOSAIC"
],
      "ImagedNucleus": "1H",
      "ImagingFrequency": 123.260634,
      "InPlanePhaseEncodingDirection": "COL",
      "LargestImagePixelValue": 65535,
      "MRAcquisitionType": "2D",
      "MagneticFieldStrength": 3.0,
      "Manufacturer": "SIEMENS",
      "ManufacturerModelName": "Prisma",
      "Modality": "MR",
      "NumberOfAverages": 1.0,
      "NumberOfPhaseEncodingSteps": 101,
      "PercentPhaseFieldOfView": 100.0,
      "PercentSampling": 100.0,
      "PerformedProcedureStepStartTime": "184304.693000",
      "PhotometricInterpretation": "MONOCHROME2",
      "PixelBandwidth": 1435.0,
      "PixelRepresentation": 0,
      "PixelSpacing": [1.8965517282486, 1.8965517282486],
      "ProtocolName": "mbep2d_bold_MB3_learn1",
      "RepetitionTime": 2000.0,
      "Rows": 1044,
      "SAR": 0.05364270311614,
      "SamplesPerPixel": 1,
      "ScanOptions": [
        "PFP",
        "FS"
],
      "ScanningSequence": "EP",
      "SequenceName": "epfid2d1_116",
      "SequenceVariant": [
        "SK",
        "SS"
],
      "SeriesDescription": "mbep2d_bold_MB3_learn1",
      "SeriesNumber": 6,
      "SeriesTime": "190544.873000",
      "SliceLocation": -79.026593277606,
      "SliceThickness": 1.8999999761581,
      "SmallestImagePixelValue": 0,
      "SoftwareVersions": "syngo MR D13D",
      "SpacingBetweenSlices": 1.8999999914427,
      "SpecificCharacterSet": "ISO_IR 100",
      "StudyID": "1",
      "StudyTime": "184304.620000",
      "TimeOfLastCalibration": ["123723.000000", "123723.000000"],
      "TransmitCoilName": "Body",
      "VariableFlipAngleFlag": "N",
      "WindowCenterWidthExplanation": "Algo1",
      "dBdt": 0.0},
    "slices": {}
  },
  "time": {
    "samples": {
      "AcquisitionNumber": [1, 2, 3, 4, 5, 6, 7, 8, 9, 10, 11, 12, 13, 14, 15, 16, 17, 18, 19, 20, 21, 22, 23, 24, 25, 26, 27, 28, 29, 30, 31, 32, 33, 34, 35, 36, 37, 38, 39, 40, 41, 42, 43, 44, 45, 46, 47, 48, 49, 50, 51, 52, 53, 54, 55, 56, 57, 58, 59, 60, 61, 62, 63, 64, 65, 66, 67, 68, 69, 70, 71, 72, 73, 74, 75, 76, 77, 78, 79, 80, 81, 82, 83, 84, 85, 86, 87, 88, 89, 90, 91, 92, 93, 94, 95, 96, 97, 98, 99, 100, 101, 102, 103, 104, 105, 106, 107, 108, 109, 110, 111, 112, 113, 114, 115, 116, 117, 118, 119, 120, 121, 122, 123, 124, 125, 126, 127, 128, 129, 130, 131, 132, 133, 134, 135, 136, 137, 138, 139, 140, 141, 142, 143, 144, 145, 146, 147, 148, 149, 150, 151, 152, 153, 154, 155, 156, 157, 158, 159, 160, 161, 162, 163, 164, 165, 166, 167, 168, 169, 170, 171, 172, 173, 174, 175, 176, 177, 178, 179, 180, 181, 182, 183, 184, 185, 186, 187, 188, 189, 190, 191, 192, 193, 194, 195, 196, 197, 198, 199, 200, 201, 202, 203, 204, 205, 206, 207, 208, 209, 210, 211, 212, 213, 214, 215, 216, 217, 218],
      "AcquisitionTime": ["190529.872500", "190531.872500", "190533.872500", "190535.872500", "190537.872500", "190539.872500", "190541.872500", "190543.872500", "190545.872500", "190547.872500", "190549.872500", "190551.872500", "190553.872500", "190555.872500", "190557.872500", "190559.872500", "190601.872500", "190603.872500", "190605.872500", "190607.872500", "190609.872500", "190611.872500", "190613.872500", "190615.872500", "190617.872500", "190619.872500", "190621.872500", "190623.872500", "190625.872500", "190627.872500", "190629.872500", "190631.872500", "190633.872500", "190635.872500", "190637.872500", "190639.872500", "190641.872500", "190643.872500", "190645.872500", "190647.872500", "190649.872500", "190651.872500", "190653.872500", "190655.872500", "190657.872500", "190659.872500", "190701.872500", "190703.872500", "190705.872500", "190707.872500", "190709.872500", "190711.872500", "190713.872500", "190715.872500", "190717.872500", "190719.872500", "190721.872500", "190723.872500", "190725.872500", "190727.872500", "190729.872500", "190731.872500", "190733.872500", "190735.872500", "190737.872500", "190739.872500", "190741.872500", "190743.872500", "190745.872500", "190747.872500", "190749.872500", "190751.872500", "190753.872500", "190755.872500", "190757.872500", "190759.872500", "190801.872500", "190803.872500", "190805.872500", "190807.872500", "190809.872500", "190811.872500", "190813.872500", "190815.872500", "190817.872500", "190819.872500", "190821.872500", "190823.872500", "190825.872500", "190827.872500", "190829.872500", "190831.872500", "190833.872500", "190835.872500", "190837.872500", "190839.872500", "190841.872500", "190843.872500", "190845.872500", "190847.872500", "190849.872500", "190851.872500", "190853.872500", "190855.872500", "190857.872500", "190859.872500", "190901.872500", "190903.872500", "190905.872500", "190907.872500", "190909.872500", "190911.872500", "190913.872500", "190915.872500", "190917.872500", "190919.872500", "190921.872500", "190923.872500", "190925.872500", "190927.872500", "190929.872500", "190931.872500", "190933.872500", "190935.872500", "190937.875000", "190939.875000", "190941.875000", "190943.875000", "190945.875000", "190947.875000", "190949.875000", "190951.875000", "190953.875000", "190955.875000", "190957.875000", "190959.875000", "191001.875000", "191003.875000", "191005.875000", "191007.875000", "191009.875000", "191011.875000", "191013.875000", "191015.875000", "191017.875000", "191019.875000", "191021.875000", "191023.875000", "191025.875000", "191027.875000", "191029.875000", "191031.875000", "191033.875000", "191035.875000", "191037.875000", "191039.875000", "191041.875000", "191043.875000", "191045.875000", "191047.875000", "191049.875000", "191051.875000", "191053.875000", "191055.875000", "191057.875000", "191059.875000", "191101.875000", "191103.875000", "191105.875000", "191107.875000", "191109.875000", "191111.875000", "191113.875000", "191115.875000", "191117.875000", "191119.875000", "191121.875000", "191123.875000", "191125.875000", "191127.875000", "191129.875000", "191131.875000", "191133.875000", "191135.875000", "191137.875000", "191139.875000", "191141.875000", "191143.875000", "191145.875000", "191147.875000", "191149.875000", "191151.875000", "191153.875000", "191155.875000", "191157.875000", "191159.875000", "191201.875000", "191203.875000", "191205.875000", "191207.875000", "191209.875000", "191211.875000", "191213.875000", "191215.875000", "191217.875000", "191219.875000", "191221.875000", "191223.875000", "191225.875000", "191227.875000", "191229.875000", "191231.875000", "191233.875000", "191235.875000", "191237.875000", "191239.875000", "191241.875000", "191243.875000"],
      "ContentTime": ["190544.878000", "190545.871000", "190545.875000", "190546.872000", "190547.873000", "190547.877000", "190548.872000", "190549.872000", "190550.873000", "190550.878000", "190552.873000", "190554.873000", "190556.873000", "190558.873000", "190600.872000", "190602.872000", "190604.873000", "190606.873000", "190608.873000", "190610.874000", "190612.873000", "190614.873000", "190616.873000", "190618.871000", "190620.873000", "190622.872000", "190624.873000", "190626.873000", "190628.873000", "190630.873000", "190632.872000", "190634.873000", "190636.871000", "190638.872000", "190640.873000", "190642.873000", "190644.873000", "190646.873000", "190648.873000", "190650.873000", "190652.872000", "190654.872000", "190656.873000", "190658.873000", "190700.873000", "190702.873000", "190704.873000", "190706.873000", "190708.873000", "190710.872000", "190712.872000", "190714.873000", "190716.873000", "190718.873000", "190720.873000", "190722.873000", "190724.873000", "190726.874000", "190728.872000", "190730.872000", "190732.873000", "190734.873000", "190736.871000", "190738.873000", "190740.872000", "190742.873000", "190744.873000", "190746.872000", "190748.872000", "190750.873000", "190752.873000", "190754.873000", "190756.873000", "190758.872000", "190800.874000", "190802.872000", "190804.872000", "190806.873000", "190808.874000", "190810.873000", "190812.873000", "190814.873000", "190816.873000", "190818.873000", "190820.872000", "190822.872000", "190824.873000", "190826.873000", "190828.873000", "190830.873000", "190832.871000", "190834.871000", "190836.872000", "190838.871000", "190840.870000", "190842.872000", "190844.872000", "190846.872000", "190848.871000", "190850.871000", "190852.871000", "190854.872000", "190856.871000", "190858.872000", "190900.873000", "190902.873000", "190904.871000", "190906.873000", "190908.873000", "190910.873000", "190912.872000", "190914.872000", "190916.874000", "190918.873000", "190920.873000", "190922.873000", "190924.872000", "190926.872000", "190928.872000", "190930.871000", "190932.870000", "190934.872000", "190936.872000", "190938.872000", "190940.872000", "190942.871000", "190944.872000", "190946.872000", "190948.871000", "190950.871000", "190952.872000", "190954.871000", "190956.872000", "190958.872000", "191000.872000", "191002.872000", "191004.871000", "191006.870000", "191008.870000", "191010.872000", "191012.872000", "191014.871000", "191016.871000", "191018.872000", "191020.872000", "191022.871000", "191024.871000", "191026.872000", "191028.871000", "191030.872000", "191032.872000", "191034.872000", "191036.872000", "191038.871000", "191040.880000", "191042.871000", "191044.872000", "191046.871000", "191048.872000", "191050.873000", "191052.873000", "191054.873000", "191056.873000", "191058.871000", "191100.871000", "191102.873000", "191104.873000", "191106.873000", "191108.873000", "191110.873000", "191112.873000", "191114.873000", "191116.872000", "191118.872000", "191120.873000", "191122.873000", "191124.873000", "191126.873000", "191128.873000", "191130.873000", "191132.872000", "191134.872000", "191136.873000", "191138.873000", "191140.874000", "191142.873000", "191144.873000", "191146.873000", "191148.873000", "191150.872000", "191152.872000", "191154.873000", "191156.873000", "191158.873000", "191200.873000", "191202.873000", "191204.873000", "191206.873000", "191208.872000", "191210.872000", "191212.873000", "191214.873000", "191216.873000", "191218.873000", "191220.873000", "191222.873000", "191224.873000", "191226.873000", "191228.872000", "191230.873000", "191232.873000", "191234.874000", "191236.873000", "191238.873000", "191240.873000", "191242.872000", "191244.871000", "191246.572000"],
      "InstanceCreationTime": ["190544.878000", "190545.871000", "190545.875000", "190546.872000", "190547.873000", "190547.877000", "190548.872000", "190549.872000", "190550.873000", "190550.878000", "190552.873000", "190554.873000", "190556.873000", "190558.873000", "190600.872000", "190602.872000", "190604.873000", "190606.873000", "190608.873000", "190610.874000", "190612.873000", "190614.873000", "190616.873000", "190618.871000", "190620.873000", "190622.872000", "190624.873000", "190626.873000", "190628.873000", "190630.873000", "190632.872000", "190634.873000", "190636.871000", "190638.872000", "190640.873000", "190642.873000", "190644.873000", "190646.873000", "190648.873000", "190650.873000", "190652.872000", "190654.872000", "190656.873000", "190658.873000", "190700.873000", "190702.873000", "190704.873000", "190706.873000", "190708.873000", "190710.872000", "190712.872000", "190714.873000", "190716.873000", "190718.873000", "190720.873000", "190722.873000", "190724.873000", "190726.874000", "190728.872000", "190730.872000", "190732.873000", "190734.873000", "190736.871000", "190738.873000", "190740.872000", "190742.873000", "190744.873000", "190746.872000", "190748.872000", "190750.873000", "190752.873000", "190754.873000", "190756.873000", "190758.872000", "190800.874000", "190802.872000", "190804.872000", "190806.873000", "190808.874000", "190810.873000", "190812.873000", "190814.873000", "190816.873000", "190818.873000", "190820.872000", "190822.872000", "190824.873000", "190826.873000", "190828.873000", "190830.873000", "190832.871000", "190834.871000", "190836.872000", "190838.871000", "190840.870000", "190842.872000", "190844.872000", "190846.872000", "190848.871000", "190850.871000", "190852.871000", "190854.872000", "190856.871000", "190858.872000", "190900.873000", "190902.873000", "190904.871000", "190906.873000", "190908.873000", "190910.873000", "190912.872000", "190914.872000", "190916.874000", "190918.873000", "190920.873000", "190922.873000", "190924.872000", "190926.872000", "190928.872000", "190930.871000", "190932.870000", "190934.872000", "190936.872000", "190938.872000", "190940.872000", "190942.871000", "190944.872000", "190946.872000", "190948.871000", "190950.871000", "190952.872000", "190954.871000", "190956.872000", "190958.872000", "191000.872000", "191002.872000", "191004.871000", "191006.870000", "191008.870000", "191010.872000", "191012.872000", "191014.871000", "191016.871000", "191018.872000", "191020.872000", "191022.871000", "191024.871000", "191026.872000", "191028.871000", "191030.872000", "191032.872000", "191034.872000", "191036.872000", "191038.871000", "191040.880000", "191042.871000", "191044.872000", "191046.871000", "191048.872000", "191050.873000", "191052.873000", "191054.873000", "191056.873000", "191058.871000", "191100.871000", "191102.873000", "191104.873000", "191106.873000", "191108.873000", "191110.873000", "191112.873000", "191114.873000", "191116.872000", "191118.872000", "191120.873000", "191122.873000", "191124.873000", "191126.873000", "191128.873000", "191130.873000", "191132.872000", "191134.872000", "191136.873000", "191138.873000", "191140.874000", "191142.873000", "191144.873000", "191146.873000", "191148.873000", "191150.872000", "191152.872000", "191154.873000", "191156.873000", "191158.873000", "191200.873000", "191202.873000", "191204.873000", "191206.873000", "191208.872000", "191210.872000", "191212.873000", "191214.873000", "191216.873000", "191218.873000", "191220.873000", "191222.873000", "191224.873000", "191226.873000", "191228.872000", "191230.873000", "191232.873000", "191234.874000", "191236.873000", "191238.873000", "191240.873000", "191242.872000", "191244.871000", "191246.572000"],
      "InstanceNumber": [1, 2, 3, 4, 5, 6, 7, 8, 9, 10, 11, 12, 13, 14, 15, 16, 17, 18, 19, 20, 21, 22, 23, 24, 25, 26, 27, 28, 29, 30, 31, 32, 33, 34, 35, 36, 37, 38, 39, 40, 41, 42, 43, 44, 45, 46, 47, 48, 49, 50, 51, 52, 53, 54, 55, 56, 57, 58, 59, 60, 61, 62, 63, 64, 65, 66, 67, 68, 69, 70, 71, 72, 73, 74, 75, 76, 77, 78, 79, 80, 81, 82, 83, 84, 85, 86, 87, 88, 89, 90, 91, 92, 93, 94, 95, 96, 97, 98, 99, 100, 101, 102, 103, 104, 105, 106, 107, 108, 109, 110, 111, 112, 113, 114, 115, 116, 117, 118, 119, 120, 121, 122, 123, 124, 125, 126, 127, 128, 129, 130, 131, 132, 133, 134, 135, 136, 137, 138, 139, 140, 141, 142, 143, 144, 145, 146, 147, 148, 149, 150, 151, 152, 153, 154, 155, 156, 157, 158, 159, 160, 161, 162, 163, 164, 165, 166, 167, 168, 169, 170, 171, 172, 173, 174, 175, 176, 177, 178, 179, 180, 181, 182, 183, 184, 185, 186, 187, 188, 189, 190, 191, 192, 193, 194, 195, 196, 197, 198, 199, 200, 201, 202, 203, 204, 205, 206, 207, 208, 209, 210, 211, 212, 213, 214, 215, 216, 217, 218],
      "WindowCenter": [18672.0, 18618.0, 18611.0, 18621.0, 18630.0, 18634.0, 18633.0, 18647.0, 18641.0, 18637.0, 18646.0, 18633.0, 18642.0, 18625.0, 18622.0, 18635.0, 18627.0, 18643.0, 18632.0, 18614.0, 18614.0, 18619.0, 18614.0, 18624.0, 18625.0, 18616.0, 18623.0, 18623.0, 18627.0, 18632.0, 18631.0, 18635.0, 18625.0, 18636.0, 18620.0, 18615.0, 18617.0, 18610.0, 18599.0, 18609.0, 18591.0, 18618.0, 18644.0, 18616.0, 18626.0, 18636.0, 18625.0, 18627.0, 18622.0, 18635.0, 18621.0, 18648.0, 18635.0, 18627.0, 18613.0, 18641.0, 18633.0, 18647.0, 18628.0, 18646.0, 18633.0, 18637.0, 18619.0, 18616.0, 18626.0, 18623.0, 18611.0, 18620.0, 18634.0, 18635.0, 18618.0, 18604.0, 18612.0, 18620.0, 18634.0, 18647.0, 18634.0, 18610.0, 18601.0, 18593.0, 18596.0, 18592.0, 18591.0, 18603.0, 18643.0, 18637.0, 18629.0, 18634.0, 18603.0, 18614.0, 18604.0, 18592.0, 18594.0, 18585.0, 18585.0, 18581.0, 18577.0, 18581.0, 18593.0, 18595.0, 18623.0, 18637.0, 18647.0, 18642.0, 18636.0, 18634.0, 18626.0, 18642.0, 18632.0, 18642.0, 18668.0, 18642.0, 18652.0, 18656.0, 18652.0, 18639.0, 18675.0, 18643.0, 18671.0, 18646.0, 18664.0, 18646.0, 18647.0, 18668.0, 18661.0, 18649.0, 18657.0, 18655.0, 18661.0, 18646.0, 18614.0, 18618.0, 18638.0, 18623.0, 18654.0, 18660.0, 18665.0, 18663.0, 18651.0, 18633.0, 18639.0, 18634.0, 18639.0, 18627.0, 18628.0, 18635.0, 18638.0, 18640.0, 18650.0, 18655.0, 18645.0, 18654.0, 18628.0, 18643.0, 18630.0, 18628.0, 18621.0, 18621.0, 18621.0, 18654.0, 18642.0, 18641.0, 18636.0, 18632.0, 18639.0, 18649.0, 18655.0, 18660.0, 18655.0, 18674.0, 18671.0, 18665.0, 18647.0, 18643.0, 18647.0, 18660.0, 18663.0, 18663.0, 18671.0, 18630.0, 18617.0, 18623.0, 18621.0, 18635.0, 18669.0, 18689.0, 18678.0, 18656.0, 18639.0, 18641.0, 18664.0, 18659.0, 18654.0, 18652.0, 18662.0, 18653.0, 18656.0, 18645.0, 18643.0, 18638.0, 18624.0, 18625.0, 18646.0, 18648.0, 18656.0, 18671.0, 18658.0, 18657.0, 18647.0, 18656.0, 18665.0, 18652.0, 18634.0, 18647.0, 18655.0, 18656.0, 18652.0, 18662.0],
      "WindowWidth": [46478.0, 46374.0, 46381.0, 46398.0, 46432.0, 46445.0, 46481.0, 46456.0, 46475.0, 46448.0, 46454.0, 46458.0, 46430.0, 46392.0, 46402.0, 46422.0, 46427.0, 46403.0, 46398.0, 46384.0, 46360.0, 46348.0, 46394.0, 46426.0, 46391.0, 46348.0, 46355.0, 46391.0, 46393.0, 46398.0, 46362.0, 46388.0, 46405.0, 46362.0, 46363.0, 46372.0, 46384.0, 46378.0, 46333.0, 46294.0, 46329.0, 46350.0, 46371.0, 46359.0, 46382.0, 46366.0, 46379.0, 46345.0, 46340.0, 46351.0, 46401.0, 46408.0, 46409.0, 46392.0, 46369.0, 46380.0, 46398.0, 46409.0, 46420.0, 46420.0, 46410.0, 46375.0, 46349.0, 46335.0, 46342.0, 46364.0, 46331.0, 46338.0, 46376.0, 46351.0, 46326.0, 46276.0, 46297.0, 46364.0, 46399.0, 46409.0, 46337.0, 46309.0, 46263.0, 46272.0, 46249.0, 46234.0, 46257.0, 46316.0, 46383.0, 46411.0, 46395.0, 46444.0, 46336.0, 46337.0, 46208.0, 46152.0, 46188.0, 46203.0, 46203.0, 46140.0, 46158.0, 46198.0, 46207.0, 46256.0, 46279.0, 46386.0, 46416.0, 46413.0, 46385.0, 46385.0, 46378.0, 46365.0, 46419.0, 46377.0, 46402.0, 46425.0, 46434.0, 46415.0, 46386.0, 46425.0, 46404.0, 46378.0, 46402.0, 46394.0, 46418.0, 46442.0, 46428.0, 46446.0, 46429.0, 46422.0, 46356.0, 46418.0, 46419.0, 46358.0, 46295.0, 46336.0, 46338.0, 46328.0, 46363.0, 46430.0, 46398.0, 46374.0, 46315.0, 46338.0, 46364.0, 46361.0, 46328.0, 46342.0, 46355.0, 46361.0, 46363.0, 46355.0, 46302.0, 46342.0, 46370.0, 46363.0, 46368.0, 46343.0, 46309.0, 46284.0, 46218.0, 46255.0, 46235.0, 46343.0, 46344.0, 46344.0, 46289.0, 46288.0, 46304.0, 46351.0, 46390.0, 46404.0, 46365.0, 46404.0, 46412.0, 46386.0, 46335.0, 46345.0, 46346.0, 46358.0, 46349.0, 46387.0, 46392.0, 46332.0, 46261.0, 46258.0, 46280.0, 46304.0, 46425.0, 46438.0, 46393.0, 46305.0, 46280.0, 46306.0, 46371.0, 46379.0, 46374.0, 46361.0, 46310.0, 46316.0, 46366.0, 46368.0, 46354.0, 46314.0, 46255.0, 46282.0, 46321.0, 46358.0, 46389.0, 46390.0, 46378.0, 46365.0, 46345.0, 46400.0, 46395.0, 46326.0, 46264.0, 46300.0, 46317.0, 46319.0, 46294.0, 46300.0]
    },
    "slices": {}
  }
}