{
  "AcquisitionMatrixPE": 116,
  "AcquisitionNumber": 1,
  "AcquisitionTime": "19:13:50.237500",
  "BandwidthPerPixelPhaseEncode": 18.539,
  "BaseResolution": 116,
  "BodyPartExamined": "HEAD",
  "ConsistencyInfo": "N4_VD13D_LATEST_20130810",
  "ConversionSoftware": "dcm2niix",
  "ConversionSoftwareVersion": "v1.0.20190410  (JP2:OpenJPEG) (JP-LS:CharLS) GCC5.5.0",
  "DerivedVendorReportedEchoSpacing": 0.000930006,
  "DeviceSerialNumber": "66014",
  "DwellTime": 3e-06,
  "EchoTime": 0.03,
  "EchoTrainLength": 50,
  "EffectiveEchoSpacing": 0.000465003,
  "FlipAngle": 81,
  "ImageComments": "Unaliased_MB3_PE4",
  "ImageOrientationPatientDICOM": [0.999493, -0.0317501, -0.00224463, 0.0314103, 0.995285, -0.0917646],
  "ImageType": [
    "ORIGINAL",
    "PRIMARY",
    "M",
    "MB",
    "ND",
    "MOSAIC"
],
  "ImagingFrequency": 123.261,
  "InPlanePhaseEncodingDirectionDICOM": "COL",
  "InstitutionAddress": "Yiheyuan_Road_5_Beijing_Haidian_CN_100871",
  "InstitutionName": "Peking_University",
  "InstitutionalDepartmentName": "Department",
  "MRAcquisitionType": "2D",
  "MagneticFieldStrength": 3,
  "Manufacturer": "Siemens",
  "ManufacturersModelName": "Prisma",
  "Modality": "MR",
  "MultibandAccelerationFactor": 3,
  "ParallelReductionFactorInPlane": 2,
  "PartialFourier": 0.875,
  "PatientPosition": "HFS",
  "PercentPhaseFOV": 100,
  "PhaseEncodingDirection": "j-",
  "PhaseEncodingSteps": 101,
  "PhaseResolution": 1,
  "PixelBandwidth": 1435,
  "ProcedureStepDescription": "Research_Projects_64CH",
  "ProtocolName": "mbep2d_bold_MB3_learn2",
  "PulseSequenceDetails": "%CustomerSeq%_cmrr_mbep2d_bold",
  "ReceiveCoilActiveElements": "HC1-7",
  "ReceiveCoilName": "HeadNeck_64",
  "ReconMatrixPE": 116,
  "RefLinesPE": 44,
  "RepetitionTime": 2,
  "SAR": 0.0536427,
  "ScanOptions": "PFP_FS",
  "ScanningSequence": "EP",
  "SequenceName": "epfid2d1_116",
  "SequenceVariant": "SK_SS",
  "SeriesDescription": "mbep2d_bold_MB3_learn2",
  "SeriesNumber": 7,
  "ShimSetting": [-3446, -2103, -1997, 399, 17, -282, -57, 31],
  "SliceThickness": 1.9,
  "SliceTiming": [0, 0.9075, 1.815, 0.7425, 1.65, 0.5775, 1.485, 0.4125, 1.32, 0.2475, 1.155, 0.0825, 0.99, 1.8975, 0.825, 1.7325, 0.66, 1.5675, 0.495, 1.4025, 0.33, 1.2375, 0.165, 1.0725, 0, 0.9075, 1.815, 0.7425, 1.65, 0.5775, 1.485, 0.4125, 1.32, 0.2475, 1.155, 0.0825, 0.99, 1.8975, 0.825, 1.7325, 0.66, 1.5675, 0.495, 1.4025, 0.33, 1.2375, 0.165, 1.0725, 0, 0.9075, 1.815, 0.7425, 1.65, 0.5775, 1.485, 0.4125, 1.32, 0.2475, 1.155, 0.0825, 0.99, 1.8975, 0.825, 1.7325, 0.66, 1.5675, 0.495, 1.4025, 0.33, 1.2375, 0.165, 1.0725],
  "SoftwareVersions": "syngo_MR_D13D",
  "SpacingBetweenSlices": 1.9,
  "StationName": "AWP66014",
  "TaskName": "updating",
  "TotalReadoutTime": 0.0534753,
  "TxRefAmp": 240.895,
  "WipMemBlock": "31f4f161-fb42-4811-bd16-0df6da9b0ba0||Sequence: vd13d/master r/0735857; Nov 19 2014 09:21:40 by eja",
  "dcmmeta_affine": [
    [-1.8955907821655273, 0.05957132205367088, -0.00978040136396885, 106.5945053100586],
    [0.06021568924188614, 1.887609839439392, -0.1741303950548172, -98.74136352539062],
    [-0.004257054999470711, 0.17403626441955566, 1.8919786214828491, -87.89838409423828],
    [0.0, 0.0, 0.0, 1.0]
],
  "dcmmeta_reorient_transform": [
    [0.0, -1.0, 0.0, 115.0],
    [1.0, 0.0, 0.0, 0.0],
    [0.0, 0.0, 1.0, 0.0],
    [0.0, 0.0, 0.0, 1.0]
],
  "dcmmeta_shape": [116, 116, 72, 218],
  "dcmmeta_slice_dim": 2,
  "dcmmeta_version": 0.6,
  "global": {
    "const": {
      "AcquisitionMatrix": [116, 0, 0, 116],
      "AngioFlag": "N",
      "BitsAllocated": 16,
      "BitsStored": 16,
      "BodyPartExamined": "HEAD",
      "Columns": 1044,
      "EchoNumbers": 1,
      "EchoTime": 30.0,
      "EchoTrainLength": 50,
      "FlipAngle": 81.0,
      "HighBit": 15,
      "ImageOrientationPatient": [0.99949331834045, -0.0317500902882, -0.0022446290299, 0.03141033296032, 0.99528521222533, -0.0917645754575],
      "ImagePositionPatient": [-1020.6404185872, -966.24468626793, 14.843885288338],
      "ImageType": [
        "ORIGINAL",
        "PRIMARY",
        "M",
        "MB",
        "ND",
        "MOSAIC"
],
      "ImagedNucleus": "1H",
      "ImagingFrequency": 123.260635,
      "InPlanePhaseEncodingDirection": "COL",
      "LargestImagePixelValue": 65535,
      "MRAcquisitionType": "2D",
      "MagneticFieldStrength": 3.0,
      "Manufacturer": "SIEMENS",
      "ManufacturerModelName": "Prisma",
      "Modality": "MR",
      "NumberOfAverages": 1.0,
      "NumberOfPhaseEncodingSteps": 101,
      "PercentPhaseFieldOfView": 100.0,
      "PercentSampling": 100.0,
      "PerformedProcedureStepStartTime": "184304.693000",
      "PhotometricInterpretation": "MONOCHROME2",
      "PixelBandwidth": 1435.0,
      "PixelRepresentation": 0,
      "PixelSpacing": [1.8965517282486, 1.8965517282486],
      "ProtocolName": "mbep2d_bold_MB3_learn2",
      "RepetitionTime": 2000.0,
      "Rows": 1044,
      "SAR": 0.05364270311614,
      "SamplesPerPixel": 1,
      "ScanOptions": [
        "PFP",
        "FS"
],
      "ScanningSequence": "EP",
      "SequenceName": "epfid2d1_116",
      "SequenceVariant": [
        "SK",
        "SS"
],
      "SeriesDescription": "mbep2d_bold_MB3_learn2",
      "SeriesNumber": 7,
      "SeriesTime": "191406.113000",
      "SliceLocation": -79.026593277606,
      "SliceThickness": 1.8999999761581,
      "SmallestImagePixelValue": 0,
      "SoftwareVersions": "syngo MR D13D",
      "SpacingBetweenSlices": 1.8999999914427,
      "SpecificCharacterSet": "ISO_IR 100",
      "StudyID": "1",
      "StudyTime": "184304.620000",
      "TimeOfLastCalibration": ["123723.000000", "123723.000000"],
      "TransmitCoilName": "Body",
      "VariableFlipAngleFlag": "N",
      "WindowCenterWidthExplanation": "Algo1",
      "dBdt": 0.0},
    "slices": {}
  },
  "time": {
    "samples": {
      "AcquisitionNumber": [1, 2, 3, 4, 5, 6, 7, 8, 9, 10, 11, 12, 13, 14, 15, 16, 17, 18, 19, 20, 21, 22, 23, 24, 25, 26, 27, 28, 29, 30, 31, 32, 33, 34, 35, 36, 37, 38, 39, 40, 41, 42, 43, 44, 45, 46, 47, 48, 49, 50, 51, 52, 53, 54, 55, 56, 57, 58, 59, 60, 61, 62, 63, 64, 65, 66, 67, 68, 69, 70, 71, 72, 73, 74, 75, 76, 77, 78, 79, 80, 81, 82, 83, 84, 85, 86, 87, 88, 89, 90, 91, 92, 93, 94, 95, 96, 97, 98, 99, 100, 101, 102, 103, 104, 105, 106, 107, 108, 109, 110, 111, 112, 113, 114, 115, 116, 117, 118, 119, 120, 121, 122, 123, 124, 125, 126, 127, 128, 129, 130, 131, 132, 133, 134, 135, 136, 137, 138, 139, 140, 141, 142, 143, 144, 145, 146, 147, 148, 149, 150, 151, 152, 153, 154, 155, 156, 157, 158, 159, 160, 161, 162, 163, 164, 165, 166, 167, 168, 169, 170, 171, 172, 173, 174, 175, 176, 177, 178, 179, 180, 181, 182, 183, 184, 185, 186, 187, 188, 189, 190, 191, 192, 193, 194, 195, 196, 197, 198, 199, 200, 201, 202, 203, 204, 205, 206, 207, 208, 209, 210, 211, 212, 213, 214, 215, 216, 217, 218],
      "AcquisitionTime": ["191350.237500", "191352.237500", "191354.237500", "191356.237500", "191358.237500", "191400.237500", "191402.237500", "191404.237500", "191406.237500", "191408.237500", "191410.237500", "191412.237500", "191414.237500", "191416.237500", "191418.237500", "191420.237500", "191422.237500", "191424.237500", "191426.237500", "191428.237500", "191430.237500", "191432.237500", "191434.237500", "191436.237500", "191438.237500", "191440.237500", "191442.237500", "191444.237500", "191446.237500", "191448.237500", "191450.237500", "191452.237500", "191454.237500", "191456.237500", "191458.237500", "191500.237500", "191502.237500", "191504.237500", "191506.237500", "191508.237500", "191510.237500", "191512.237500", "191514.237500", "191516.237500", "191518.237500", "191520.237500", "191522.237500", "191524.237500", "191526.237500", "191528.237500", "191530.237500", "191532.237500", "191534.237500", "191536.237500", "191538.237500", "191540.237500", "191542.237500", "191544.237500", "191546.237500", "191548.237500", "191550.237500", "191552.237500", "191554.237500", "191556.237500", "191558.237500", "191600.237500", "191602.237500", "191604.237500", "191606.237500", "191608.237500", "191610.237500", "191612.237500", "191614.237500", "191616.237500", "191618.237500", "191620.237500", "191622.237500", "191624.237500", "191626.237500", "191628.237500", "191630.237500", "191632.237500", "191634.237500", "191636.237500", "191638.237500", "191640.237500", "191642.237500", "191644.237500", "191646.237500", "191648.237500", "191650.237500", "191652.237500", "191654.237500", "191656.237500", "191658.237500", "191700.237500", "191702.237500", "191704.237500", "191706.237500", "191708.237500", "191710.237500", "191712.237500", "191714.237500", "191716.237500", "191718.237500", "191720.237500", "191722.237500", "191724.237500", "191726.237500", "191728.237500", "191730.237500", "191732.237500", "191734.237500", "191736.237500", "191738.237500", "191740.237500", "191742.237500", "191744.237500", "191746.237500", "191748.237500", "191750.237500", "191752.237500", "191754.237500", "191756.237500", "191758.237500", "191800.237500", "191802.237500", "191804.237500", "191806.237500", "191808.237500", "191810.237500", "191812.237500", "191814.237500", "191816.237500", "191818.237500", "191820.237500", "191822.237500", "191824.237500", "191826.237500", "191828.237500", "191830.237500", "191832.237500", "191834.237500", "191836.237500", "191838.237500", "191840.237500", "191842.237500", "191844.237500", "191846.237500", "191848.237500", "191850.237500", "191852.237500", "191854.237500", "191856.237500", "191858.237500", "191900.237500", "191902.237500", "191904.237500", "191906.237500", "191908.237500", "191910.237500", "191912.237500", "191914.237500", "191916.237500", "191918.237500", "191920.237500", "191922.237500", "191924.237500", "191926.237500", "191928.237500", "191930.237500", "191932.237500", "191934.237500", "191936.237500", "191938.237500", "191940.237500", "191942.237500", "191944.237500", "191946.237500", "191948.237500", "191950.237500", "191952.237500", "191954.237500", "191956.237500", "191958.237500", "192000.237500", "192002.237500", "192004.237500", "192006.237500", "192008.237500", "192010.237500", "192012.237500", "192014.237500", "192016.237500", "192018.237500", "192020.237500", "192022.237500", "192024.237500", "192026.237500", "192028.237500", "192030.240000", "192032.240000", "192034.240000", "192036.240000", "192038.240000", "192040.240000", "192042.240000", "192044.240000", "192046.240000", "192048.240000", "192050.240000", "192052.240000", "192054.240000", "192056.240000", "192058.240000", "192100.240000", "192102.240000", "192104.240000"],
      "ContentTime": ["191406.118000", "191407.111000", "191408.134000", "191408.138000", "191409.110000", "191410.111000", "191410.115000", "191411.110000", "191412.111000", "191413.111000", "191414.111000", "191415.612000", "191417.613000", "191419.613000", "191421.613000", "191423.612000", "191425.610000", "191427.612000", "191429.613000", "191431.613000", "191433.613000", "191435.611000", "191437.612000", "191439.610000", "191441.613000", "191443.613000", "191445.613000", "191447.613000", "191449.614000", "191451.613000", "191453.614000", "191455.612000", "191457.612000", "191459.613000", "191501.613000", "191503.613000", "191505.613000", "191507.612000", "191509.614000", "191511.613000", "191513.612000", "191515.613000", "191517.612000", "191519.612000", "191521.612000", "191523.612000", "191525.614000", "191527.613000", "191529.614000", "191531.612000", "191533.611000", "191535.611000", "191537.611000", "191539.611000", "191541.612000", "191543.612000", "191545.612000", "191547.611000", "191549.611000", "191551.611000", "191553.611000", "191555.610000", "191557.611000", "191559.612000", "191601.612000", "191603.612000", "191605.611000", "191607.611000", "191609.612000", "191611.610000", "191613.612000", "191615.612000", "191617.613000", "191619.614000", "191621.613000", "191623.612000", "191625.613000", "191627.619000", "191629.613000", "191631.612000", "191633.613000", "191635.613000", "191637.613000", "191639.613000", "191641.612000", "191643.613000", "191645.612000", "191647.613000", "191649.612000", "191651.613000", "191653.613000", "191655.613000", "191657.613000", "191659.613000", "191701.612000", "191703.611000", "191705.612000", "191707.613000", "191709.613000", "191711.612000", "191713.614000", "191715.613000", "191717.612000", "191719.612000", "191721.612000", "191723.612000", "191725.613000", "191727.613000", "191729.613000", "191731.613000", "191733.612000", "191735.612000", "191737.613000", "191739.612000", "191741.613000", "191743.612000", "191745.613000", "191747.614000", "191749.614000", "191751.612000", "191753.612000", "191755.613000", "191757.613000", "191759.612000", "191801.614000", "191803.613000", "191805.612000", "191807.613000", "191809.613000", "191811.612000", "191813.613000", "191815.613000", "191817.612000", "191819.614000", "191821.613000", "191823.613000", "191825.612000", "191827.612000", "191829.612000", "191831.612000", "191833.612000", "191835.612000", "191837.613000", "191839.613000", "191841.613000", "191843.612000", "191845.613000", "191847.612000", "191849.612000", "191851.612000", "191853.614000", "191855.613000", "191857.613000", "191859.613000", "191901.612000", "191903.612000", "191905.612000", "191907.612000", "191909.612000", "191911.613000", "191913.613000", "191915.613000", "191917.612000", "191919.612000", "191921.613000", "191923.612000", "191925.612000", "191927.612000", "191929.614000", "191931.613000", "191933.613000", "191935.612000", "191937.612000", "191939.612000", "191941.612000", "191943.612000", "191945.611000", "191947.613000", "191949.613000", "191951.613000", "191953.612000", "191955.612000", "191957.612000", "191959.612000", "192001.612000", "192003.612000", "192005.613000", "192007.614000", "192009.613000", "192011.612000", "192013.613000", "192015.612000", "192017.613000", "192019.612000", "192021.613000", "192023.614000", "192025.613000", "192027.612000", "192029.612000", "192031.612000", "192033.613000", "192035.612000", "192037.612000", "192039.612000", "192041.613000", "192043.614000", "192045.613000", "192047.612000", "192049.612000", "192051.612000", "192053.613000", "192055.612000", "192057.614000", "192059.613000", "192101.614000", "192103.612000", "192105.612000", "192107.222000"],
      "InstanceCreationTime": ["191406.118000", "191407.111000", "191408.134000", "191408.138000", "191409.110000", "191410.111000", "191410.115000", "191411.110000", "191412.111000", "191413.111000", "191414.111000", "191415.612000", "191417.613000", "191419.613000", "191421.613000", "191423.612000", "191425.610000", "191427.612000", "191429.613000", "191431.613000", "191433.613000", "191435.611000", "191437.612000", "191439.610000", "191441.613000", "191443.613000", "191445.613000", "191447.613000", "191449.614000", "191451.613000", "191453.614000", "191455.612000", "191457.612000", "191459.613000", "191501.613000", "191503.613000", "191505.613000", "191507.612000", "191509.614000", "191511.613000", "191513.612000", "191515.613000", "191517.612000", "191519.612000", "191521.612000", "191523.612000", "191525.614000", "191527.613000", "191529.614000", "191531.612000", "191533.611000", "191535.611000", "191537.611000", "191539.611000", "191541.612000", "191543.612000", "191545.612000", "191547.611000", "191549.611000", "191551.611000", "191553.611000", "191555.610000", "191557.611000", "191559.612000", "191601.612000", "191603.612000", "191605.611000", "191607.611000", "191609.612000", "191611.610000", "191613.612000", "191615.612000", "191617.613000", "191619.614000", "191621.613000", "191623.612000", "191625.613000", "191627.619000", "191629.613000", "191631.612000", "191633.613000", "191635.613000", "191637.613000", "191639.613000", "191641.612000", "191643.613000", "191645.612000", "191647.613000", "191649.612000", "191651.613000", "191653.613000", "191655.613000", "191657.613000", "191659.613000", "191701.612000", "191703.611000", "191705.612000", "191707.613000", "191709.613000", "191711.612000", "191713.614000", "191715.613000", "191717.612000", "191719.612000", "191721.612000", "191723.612000", "191725.613000", "191727.613000", "191729.613000", "191731.613000", "191733.612000", "191735.612000", "191737.613000", "191739.612000", "191741.613000", "191743.612000", "191745.613000", "191747.614000", "191749.614000", "191751.612000", "191753.612000", "191755.613000", "191757.613000", "191759.612000", "191801.614000", "191803.613000", "191805.612000", "191807.613000", "191809.613000", "191811.612000", "191813.613000", "191815.613000", "191817.612000", "191819.614000", "191821.613000", "191823.613000", "191825.612000", "191827.612000", "191829.612000", "191831.612000", "191833.612000", "191835.612000", "191837.613000", "191839.613000", "191841.613000", "191843.612000", "191845.613000", "191847.612000", "191849.612000", "191851.612000", "191853.614000", "191855.613000", "191857.613000", "191859.613000", "191901.612000", "191903.612000", "191905.612000", "191907.612000", "191909.612000", "191911.613000", "191913.613000", "191915.613000", "191917.612000", "191919.612000", "191921.613000", "191923.612000", "191925.612000", "191927.612000", "191929.614000", "191931.613000", "191933.613000", "191935.612000", "191937.612000", "191939.612000", "191941.612000", "191943.612000", "191945.611000", "191947.613000", "191949.613000", "191951.613000", "191953.612000", "191955.612000", "191957.612000", "191959.612000", "192001.612000", "192003.612000", "192005.613000", "192007.614000", "192009.613000", "192011.612000", "192013.613000", "192015.612000", "192017.613000", "192019.612000", "192021.613000", "192023.614000", "192025.613000", "192027.612000", "192029.612000", "192031.612000", "192033.613000", "192035.612000", "192037.612000", "192039.612000", "192041.613000", "192043.614000", "192045.613000", "192047.612000", "192049.612000", "192051.612000", "192053.613000", "192055.612000", "192057.614000", "192059.613000", "192101.614000", "192103.612000", "192105.612000", "192107.222000"],
      "InstanceNumber": [1, 2, 3, 4, 5, 6, 7, 8, 9, 10, 11, 12, 13, 14, 15, 16, 17, 18, 19, 20, 21, 22, 23, 24, 25, 26, 27, 28, 29, 30, 31, 32, 33, 34, 35, 36, 37, 38, 39, 40, 41, 42, 43, 44, 45, 46, 47, 48, 49, 50, 51, 52, 53, 54, 55, 56, 57, 58, 59, 60, 61, 62, 63, 64, 65, 66, 67, 68, 69, 70, 71, 72, 73, 74, 75, 76, 77, 78, 79, 80, 81, 82, 83, 84, 85, 86, 87, 88, 89, 90, 91, 92, 93, 94, 95, 96, 97, 98, 99, 100, 101, 102, 103, 104, 105, 106, 107, 108, 109, 110, 111, 112, 113, 114, 115, 116, 117, 118, 119, 120, 121, 122, 123, 124, 125, 126, 127, 128, 129, 130, 131, 132, 133, 134, 135, 136, 137, 138, 139, 140, 141, 142, 143, 144, 145, 146, 147, 148, 149, 150, 151, 152, 153, 154, 155, 156, 157, 158, 159, 160, 161, 162, 163, 164, 165, 166, 167, 168, 169, 170, 171, 172, 173, 174, 175, 176, 177, 178, 179, 180, 181, 182, 183, 184, 185, 186, 187, 188, 189, 190, 191, 192, 193, 194, 195, 196, 197, 198, 199, 200, 201, 202, 203, 204, 205, 206, 207, 208, 209, 210, 211, 212, 213, 214, 215, 216, 217, 218],
      "WindowCenter": [18737.0, 18680.0, 18670.0, 18673.0, 18689.0, 18674.0, 18657.0, 18669.0, 18652.0, 18653.0, 18652.0, 18651.0, 18649.0, 18625.0, 18630.0, 18619.0, 18618.0, 18633.0, 18649.0, 18640.0, 18653.0, 18639.0, 18625.0, 18628.0, 18637.0, 18648.0, 18644.0, 18651.0, 18650.0, 18665.0, 18665.0, 18655.0, 18643.0, 18647.0, 18657.0, 18680.0, 18658.0, 18650.0, 18636.0, 18645.0, 18637.0, 18639.0, 18639.0, 18638.0, 18637.0, 18587.0, 18651.0, 18452.0, 18609.0, 18574.0, 18577.0, 18605.0, 18641.0, 18638.0, 18654.0, 18651.0, 18650.0, 18643.0, 18634.0, 18669.0, 18648.0, 18606.0, 18606.0, 18618.0, 18629.0, 18657.0, 18651.0, 18685.0, 18683.0, 18659.0, 18631.0, 18618.0, 18630.0, 18658.0, 18657.0, 18643.0, 18636.0, 18639.0, 18645.0, 18639.0, 18628.0, 18623.0, 18627.0, 18627.0, 18629.0, 18626.0, 18622.0, 18657.0, 18646.0, 18643.0, 18671.0, 18660.0, 18678.0, 18678.0, 18667.0, 18639.0, 18627.0, 18577.0, 18653.0, 18623.0, 18638.0, 18639.0, 18655.0, 18674.0, 18691.0, 18679.0, 18672.0, 18659.0, 18640.0, 18644.0, 18643.0, 18651.0, 18412.0, 18549.0, 18621.0, 18625.0, 18652.0, 18660.0, 18646.0, 18656.0, 18652.0, 18656.0, 18656.0, 18504.0, 18515.0, 18674.0, 18650.0, 18648.0, 18667.0, 18668.0, 18659.0, 18652.0, 18640.0, 18662.0, 18673.0, 18681.0, 18659.0, 18654.0, 18640.0, 18655.0, 18647.0, 18653.0, 18564.0, 18605.0, 18639.0, 18659.0, 18689.0, 18600.0, 18677.0, 18626.0, 18624.0, 18623.0, 18629.0, 18638.0, 18632.0, 18636.0, 18626.0, 18573.0, 18633.0, 18645.0, 18629.0, 18630.0, 18610.0, 18707.0, 18639.0, 18641.0, 18513.0, 18641.0, 18618.0, 18635.0, 18644.0, 18650.0, 18652.0, 18665.0, 18664.0, 18662.0, 18651.0, 18637.0, 18648.0, 18661.0, 18653.0, 18640.0, 18657.0, 18653.0, 18651.0, 18667.0, 18665.0, 18632.0, 18620.0, 18597.0, 18610.0, 18478.0, 18559.0, 18673.0, 18614.0, 18637.0, 18665.0, 18649.0, 18643.0, 18613.0, 18616.0, 18614.0, 18621.0, 18630.0, 18309.0, 18661.0, 18378.0, 18632.0, 18532.0, 18625.0, 18654.0, 18676.0, 18643.0, 18685.0, 18653.0, 18626.0, 18117.0, 18709.0],
      "WindowWidth": [46514.0, 46359.0, 46291.0, 46343.0, 46331.0, 46355.0, 46342.0, 46279.0, 46255.0, 46278.0, 46304.0, 46266.0, 46264.0, 46232.0, 46239.0, 46112.0, 46139.0, 46215.0, 46250.0, 46269.0, 46266.0, 46268.0, 46245.0, 46213.0, 46243.0, 46230.0, 46250.0, 46255.0, 46277.0, 46312.0, 46337.0, 46307.0, 46272.0, 46289.0, 46345.0, 46395.0, 46364.0, 46273.0, 46204.0, 46261.0, 46256.0, 46281.0, 46256.0, 46243.0, 46230.0, 46167.0, 46280.0, 45667.0, 46305.0, 46154.0, 46146.0, 46204.0, 46256.0, 46266.0, 46302.0, 46310.0, 46345.0, 46305.0, 46283.0, 46348.0, 46294.0, 46166.0, 46167.0, 46188.0, 46293.0, 46326.0, 46358.0, 46447.0, 46443.0, 46352.0, 46258.0, 46213.0, 46261.0, 46343.0, 46364.0, 46327.0, 46274.0, 46263.0, 46308.0, 46289.0, 46256.0, 46240.0, 46206.0, 46207.0, 46220.0, 46241.0, 46276.0, 46339.0, 46329.0, 46316.0, 46326.0, 46353.0, 46377.0, 46342.0, 46337.0, 46299.0, 46232.0, 46127.0, 46300.0, 46227.0, 46252.0, 46263.0, 46324.0, 46388.0, 46436.0, 46439.0, 46374.0, 46304.0, 46290.0, 46269.0, 46267.0, 46299.0, 45697.0, 46113.0, 46262.0, 46239.0, 46331.0, 46363.0, 46374.0, 46394.0, 46367.0, 46269.0, 46277.0, 45901.0, 46021.0, 46351.0, 46329.0, 46362.0, 46390.0, 46355.0, 46338.0, 46357.0, 46335.0, 46378.0, 46410.0, 46401.0, 46369.0, 46342.0, 46298.0, 46334.0, 46327.0, 46357.0, 46131.0, 46293.0, 46371.0, 46374.0, 46480.0, 46270.0, 46468.0, 46354.0, 46306.0, 46318.0, 46324.0, 46318.0, 46302.0, 46305.0, 46343.0, 46250.0, 46357.0, 46359.0, 46344.0, 46346.0, 46259.0, 46494.0, 46304.0, 46248.0, 45971.0, 46344.0, 46278.0, 46279.0, 46347.0, 46339.0, 46379.0, 46378.0, 46423.0, 46372.0, 46390.0, 46354.0, 46314.0, 46339.0, 46355.0, 46346.0, 46359.0, 46354.0, 46376.0, 46414.0, 46414.0, 46338.0, 46269.0, 46203.0, 46227.0, 45812.0, 46170.0, 46347.0, 46274.0, 46307.0, 46329.0, 46377.0, 46359.0, 46261.0, 46267.0, 46264.0, 46294.0, 46289.0, 45407.0, 46444.0, 45482.0, 46382.0, 46045.0, 46233.0, 46350.0, 46416.0, 46379.0, 46437.0, 46340.0, 46260.0, 44694.0, 46400.0]
    },
    "slices": {}
  }
}