{
  "AcquisitionMatrixPE": 116,
  "AcquisitionNumber": 1,
  "AcquisitionTime": "19:38:43.807500",
  "BandwidthPerPixelPhaseEncode": 18.539,
  "BaseResolution": 116,
  "BodyPartExamined": "HEAD",
  "ConsistencyInfo": "N4_VD13D_LATEST_20130810",
  "ConversionSoftware": "dcm2niix",
  "ConversionSoftwareVersion": "v1.0.20190410  (JP2:OpenJPEG) (JP-LS:CharLS) GCC5.5.0",
  "DerivedVendorReportedEchoSpacing": 0.000930006,
  "DeviceSerialNumber": "66014",
  "DwellTime": 3e-06,
  "EchoTime": 0.03,
  "EchoTrainLength": 50,
  "EffectiveEchoSpacing": 0.000465003,
  "FlipAngle": 81,
  "ImageComments": "Unaliased_MB3_PE4",
  "ImageOrientationPatientDICOM": [0.999493, -0.0317501, -0.00224463, 0.0314103, 0.995285, -0.0917646],
  "ImageType": [
    "ORIGINAL",
    "PRIMARY",
    "M",
    "MB",
    "ND",
    "MOSAIC"
],
  "ImagingFrequency": 123.261,
  "InPlanePhaseEncodingDirectionDICOM": "COL",
  "InstitutionAddress": "Yiheyuan_Road_5_Beijing_Haidian_CN_100871",
  "InstitutionName": "Peking_University",
  "InstitutionalDepartmentName": "Department",
  "MRAcquisitionType": "2D",
  "MagneticFieldStrength": 3,
  "Manufacturer": "Siemens",
  "ManufacturersModelName": "Prisma",
  "Modality": "MR",
  "MultibandAccelerationFactor": 3,
  "ParallelReductionFactorInPlane": 2,
  "PartialFourier": 0.875,
  "PatientPosition": "HFS",
  "PercentPhaseFOV": 100,
  "PhaseEncodingDirection": "j-",
  "PhaseEncodingSteps": 101,
  "PhaseResolution": 1,
  "PixelBandwidth": 1435,
  "ProcedureStepDescription": "Research_Projects_64CH",
  "ProtocolName": "mbep2d_bold_MB3_learn5",
  "PulseSequenceDetails": "%CustomerSeq%_cmrr_mbep2d_bold",
  "ReceiveCoilActiveElements": "HC1-7",
  "ReceiveCoilName": "HeadNeck_64",
  "ReconMatrixPE": 116,
  "RefLinesPE": 44,
  "RepetitionTime": 2,
  "SAR": 0.0536427,
  "ScanOptions": "PFP_FS",
  "ScanningSequence": "EP",
  "SequenceName": "epfid2d1_116",
  "SequenceVariant": "SK_SS",
  "SeriesDescription": "mbep2d_bold_MB3_learn5",
  "SeriesNumber": 10,
  "ShimSetting": [-3446, -2103, -1997, 399, 17, -282, -57, 31],
  "SliceThickness": 1.9,
  "SliceTiming": [0, 0.9075, 1.815, 0.7425, 1.65, 0.5775, 1.485, 0.4125, 1.32, 0.2475, 1.155, 0.0825, 0.99, 1.8975, 0.825, 1.7325, 0.66, 1.5675, 0.495, 1.4025, 0.33, 1.2375, 0.165, 1.0725, 0, 0.9075, 1.815, 0.7425, 1.65, 0.5775, 1.485, 0.4125, 1.32, 0.2475, 1.155, 0.0825, 0.99, 1.8975, 0.825, 1.7325, 0.66, 1.5675, 0.495, 1.4025, 0.33, 1.2375, 0.165, 1.0725, 0, 0.9075, 1.815, 0.7425, 1.65, 0.5775, 1.485, 0.4125, 1.32, 0.2475, 1.155, 0.0825, 0.99, 1.8975, 0.825, 1.7325, 0.66, 1.5675, 0.495, 1.4025, 0.33, 1.2375, 0.165, 1.0725],
  "SoftwareVersions": "syngo_MR_D13D",
  "SpacingBetweenSlices": 1.9,
  "StationName": "AWP66014",
  "TaskName": "updating",
  "TotalReadoutTime": 0.0534753,
  "TxRefAmp": 240.895,
  "WipMemBlock": "9b068233-19c3-46fe-bd14-ff5717289689||Sequence: vd13d/master r/0735857; Nov 19 2014 09:21:40 by eja",
  "dcmmeta_affine": [
    [-1.8955907821655273, 0.05957132205367088, -0.00978040136396885, 106.5945053100586],
    [0.06021568924188614, 1.887609839439392, -0.1741303950548172, -98.74136352539062],
    [-0.004257054999470711, 0.17403626441955566, 1.8919786214828491, -87.89838409423828],
    [0.0, 0.0, 0.0, 1.0]
],
  "dcmmeta_reorient_transform": [
    [0.0, -1.0, 0.0, 115.0],
    [1.0, 0.0, 0.0, 0.0],
    [0.0, 0.0, 1.0, 0.0],
    [0.0, 0.0, 0.0, 1.0]
],
  "dcmmeta_shape": [116, 116, 72, 218],
  "dcmmeta_slice_dim": 2,
  "dcmmeta_version": 0.6,
  "global": {
    "const": {
      "AcquisitionMatrix": [116, 0, 0, 116],
      "AngioFlag": "N",
      "BitsAllocated": 16,
      "BitsStored": 16,
      "BodyPartExamined": "HEAD",
      "Columns": 1044,
      "EchoNumbers": 1,
      "EchoTime": 30.0,
      "EchoTrainLength": 50,
      "FlipAngle": 81.0,
      "HighBit": 15,
      "ImageOrientationPatient": [0.99949331834045, -0.0317500902882, -0.0022446290299, 0.03141033296032, 0.99528521222533, -0.0917645754575],
      "ImagePositionPatient": [-1020.6404185872, -966.24468626793, 14.843885288338],
      "ImageType": [
        "ORIGINAL",
        "PRIMARY",
        "M",
        "MB",
        "ND",
        "MOSAIC"
],
      "ImagedNucleus": "1H",
      "ImagingFrequency": 123.260638,
      "InPlanePhaseEncodingDirection": "COL",
      "LargestImagePixelValue": 65535,
      "MRAcquisitionType": "2D",
      "MagneticFieldStrength": 3.0,
      "Manufacturer": "SIEMENS",
      "ManufacturerModelName": "Prisma",
      "Modality": "MR",
      "NumberOfAverages": 1.0,
      "NumberOfPhaseEncodingSteps": 101,
      "PercentPhaseFieldOfView": 100.0,
      "PercentSampling": 100.0,
      "PerformedProcedureStepStartTime": "184304.693000",
      "PhotometricInterpretation": "MONOCHROME2",
      "PixelBandwidth": 1435.0,
      "PixelRepresentation": 0,
      "PixelSpacing": [1.8965517282486, 1.8965517282486],
      "ProtocolName": "mbep2d_bold_MB3_learn5",
      "RepetitionTime": 2000.0,
      "Rows": 1044,
      "SAR": 0.05364270311614,
      "SamplesPerPixel": 1,
      "ScanOptions": [
        "PFP",
        "FS"
],
      "ScanningSequence": "EP",
      "SequenceName": "epfid2d1_116",
      "SequenceVariant": [
        "SK",
        "SS"
],
      "SeriesDescription": "mbep2d_bold_MB3_learn5",
      "SeriesNumber": 10,
      "SeriesTime": "193858.360000",
      "SliceLocation": -79.026593277606,
      "SliceThickness": 1.8999999761581,
      "SmallestImagePixelValue": 0,
      "SoftwareVersions": "syngo MR D13D",
      "SpacingBetweenSlices": 1.8999999914427,
      "SpecificCharacterSet": "ISO_IR 100",
      "StudyID": "1",
      "StudyTime": "184304.620000",
      "TimeOfLastCalibration": ["123723.000000", "123723.000000"],
      "TransmitCoilName": "Body",
      "VariableFlipAngleFlag": "N",
      "WindowCenterWidthExplanation": "Algo1",
      "dBdt": 0.0},
    "slices": {}
  },
  "time": {
    "samples": {
      "AcquisitionNumber": [1, 2, 3, 4, 5, 6, 7, 8, 9, 10, 11, 12, 13, 14, 15, 16, 17, 18, 19, 20, 21, 22, 23, 24, 25, 26, 27, 28, 29, 30, 31, 32, 33, 34, 35, 36, 37, 38, 39, 40, 41, 42, 43, 44, 45, 46, 47, 48, 49, 50, 51, 52, 53, 54, 55, 56, 57, 58, 59, 60, 61, 62, 63, 64, 65, 66, 67, 68, 69, 70, 71, 72, 73, 74, 75, 76, 77, 78, 79, 80, 81, 82, 83, 84, 85, 86, 87, 88, 89, 90, 91, 92, 93, 94, 95, 96, 97, 98, 99, 100, 101, 102, 103, 104, 105, 106, 107, 108, 109, 110, 111, 112, 113, 114, 115, 116, 117, 118, 119, 120, 121, 122, 123, 124, 125, 126, 127, 128, 129, 130, 131, 132, 133, 134, 135, 136, 137, 138, 139, 140, 141, 142, 143, 144, 145, 146, 147, 148, 149, 150, 151, 152, 153, 154, 155, 156, 157, 158, 159, 160, 161, 162, 163, 164, 165, 166, 167, 168, 169, 170, 171, 172, 173, 174, 175, 176, 177, 178, 179, 180, 181, 182, 183, 184, 185, 186, 187, 188, 189, 190, 191, 192, 193, 194, 195, 196, 197, 198, 199, 200, 201, 202, 203, 204, 205, 206, 207, 208, 209, 210, 211, 212, 213, 214, 215, 216, 217, 218],
      "AcquisitionTime": ["193843.807500", "193845.807500", "193847.807500", "193849.807500", "193851.807500", "193853.807500", "193855.807500", "193857.807500", "193859.807500", "193901.807500", "193903.807500", "193905.807500", "193907.807500", "193909.807500", "193911.807500", "193913.807500", "193915.807500", "193917.807500", "193919.807500", "193921.807500", "193923.807500", "193925.807500", "193927.807500", "193929.807500", "193931.807500", "193933.807500", "193935.807500", "193937.807500", "193939.807500", "193941.807500", "193943.807500", "193945.807500", "193947.807500", "193949.807500", "193951.807500", "193953.807500", "193955.807500", "193957.807500", "193959.807500", "194001.807500", "194003.807500", "194005.807500", "194007.807500", "194009.807500", "194011.807500", "194013.807500", "194015.807500", "194017.807500", "194019.807500", "194021.807500", "194023.807500", "194025.807500", "194027.807500", "194029.807500", "194031.807500", "194033.807500", "194035.807500", "194037.807500", "194039.807500", "194041.807500", "194043.807500", "194045.807500", "194047.807500", "194049.807500", "194051.810000", "194053.810000", "194055.810000", "194057.810000", "194059.810000", "194101.810000", "194103.810000", "194105.810000", "194107.810000", "194109.810000", "194111.810000", "194113.810000", "194115.810000", "194117.810000", "194119.810000", "194121.810000", "194123.810000", "194125.810000", "194127.810000", "194129.810000", "194131.810000", "194133.810000", "194135.810000", "194137.810000", "194139.810000", "194141.810000", "194143.810000", "194145.810000", "194147.810000", "194149.810000", "194151.810000", "194153.810000", "194155.810000", "194157.810000", "194159.810000", "194201.810000", "194203.810000", "194205.810000", "194207.810000", "194209.810000", "194211.810000", "194213.810000", "194215.810000", "194217.810000", "194219.810000", "194221.810000", "194223.810000", "194225.810000", "194227.810000", "194229.810000", "194231.810000", "194233.810000", "194235.810000", "194237.810000", "194239.810000", "194241.810000", "194243.810000", "194245.810000", "194247.810000", "194249.810000", "194251.810000", "194253.810000", "194255.810000", "194257.810000", "194259.810000", "194301.810000", "194303.810000", "194305.810000", "194307.810000", "194309.810000", "194311.810000", "194313.810000", "194315.810000", "194317.810000", "194319.810000", "194321.810000", "194323.810000", "194325.810000", "194327.810000", "194329.810000", "194331.810000", "194333.810000", "194335.810000", "194337.810000", "194339.810000", "194341.810000", "194343.810000", "194345.810000", "194347.810000", "194349.810000", "194351.810000", "194353.810000", "194355.810000", "194357.810000", "194359.810000", "194401.810000", "194403.810000", "194405.810000", "194407.810000", "194409.810000", "194411.810000", "194413.810000", "194415.810000", "194417.810000", "194419.810000", "194421.810000", "194423.810000", "194425.810000", "194427.810000", "194429.810000", "194431.810000", "194433.810000", "194435.810000", "194437.810000", "194439.810000", "194441.810000", "194443.810000", "194445.810000", "194447.810000", "194449.810000", "194451.810000", "194453.810000", "194455.810000", "194457.810000", "194459.810000", "194501.810000", "194503.810000", "194505.810000", "194507.810000", "194509.810000", "194511.810000", "194513.810000", "194515.810000", "194517.810000", "194519.810000", "194521.810000", "194523.810000", "194525.810000", "194527.810000", "194529.810000", "194531.810000", "194533.810000", "194535.810000", "194537.810000", "194539.810000", "194541.810000", "194543.810000", "194545.810000", "194547.810000", "194549.810000", "194551.810000", "194553.810000", "194555.810000", "194557.810000"],
      "ContentTime": ["193858.365000", "193859.357000", "193900.360000", "193900.365000", "193901.359000", "193902.359000", "193902.363000", "193903.360000", "193904.359000", "193905.359000", "193906.360000", "193908.360000", "193910.360000", "193912.360000", "193914.360000", "193916.360000", "193918.361000", "193920.361000", "193922.360000", "193924.360000", "193926.359000", "193928.360000", "193930.360000", "193932.358000", "193934.360000", "193936.361000", "193938.360000", "193940.361000", "193942.359000", "193944.360000", "193946.360000", "193948.360000", "193950.360000", "193952.359000", "193954.360000", "193956.361000", "193958.360000", "194000.360000", "194002.360000", "194004.359000", "194006.360000", "194008.360000", "194010.361000", "194012.361000", "194014.360000", "194016.359000", "194018.359000", "194020.360000", "194022.360000", "194024.360000", "194026.360000", "194028.361000", "194030.361000", "194032.360000", "194034.360000", "194036.359000", "194038.359000", "194040.360000", "194042.360000", "194044.360000", "194046.361000", "194048.360000", "194050.360000", "194052.359000", "194054.359000", "194056.359000", "194058.359000", "194100.380000", "194102.361000", "194104.361000", "194106.361000", "194108.361000", "194110.359000", "194112.359000", "194114.359000", "194116.359000", "194118.359000", "194120.361000", "194122.361000", "194124.361000", "194126.361000", "194128.360000", "194130.360000", "194132.359000", "194134.360000", "194136.359000", "194138.360000", "194140.360000", "194142.361000", "194144.361000", "194146.359000", "194148.359000", "194150.359000", "194152.359000", "194154.359000", "194156.361000", "194158.360000", "194200.361000", "194202.359000", "194204.360000", "194206.359000", "194208.358000", "194210.359000", "194212.360000", "194214.361000", "194216.360000", "194218.361000", "194220.359000", "194222.359000", "194224.359000", "194226.359000", "194228.359000", "194230.360000", "194232.360000", "194234.360000", "194236.359000", "194238.359000", "194240.359000", "194242.359000", "194244.360000", "194246.360000", "194248.360000", "194250.360000", "194252.361000", "194254.360000", "194256.360000", "194258.359000", "194300.357000", "194302.359000", "194304.359000", "194306.360000", "194308.360000", "194310.361000", "194312.359000", "194314.358000", "194316.359000", "194318.359000", "194320.359000", "194322.360000", "194324.360000", "194326.360000", "194328.360000", "194330.359000", "194332.359000", "194334.359000", "194336.359000", "194338.359000", "194340.360000", "194342.360000", "194344.360000", "194346.360000", "194348.359000", "194350.359000", "194352.359000", "194354.359000", "194356.359000", "194358.360000", "194400.360000", "194402.359000", "194404.360000", "194406.360000", "194408.357000", "194410.358000", "194412.358000", "194414.359000", "194416.360000", "194418.360000", "194420.359000", "194422.360000", "194424.359000", "194426.359000", "194428.358000", "194430.357000", "194432.360000", "194434.359000", "194436.361000", "194438.360000", "194440.359000", "194442.359000", "194444.360000", "194446.360000", "194448.359000", "194450.360000", "194452.360000", "194454.360000", "194456.360000", "194458.359000", "194500.360000", "194502.359000", "194504.359000", "194506.359000", "194508.360000", "194510.359000", "194512.361000", "194514.360000", "194516.359000", "194518.359000", "194520.359000", "194522.359000", "194524.359000", "194526.360000", "194528.360000", "194530.360000", "194532.359000", "194534.359000", "194536.359000", "194538.359000", "194540.359000", "194542.360000", "194544.361000", "194546.361000", "194548.360000", "194550.359000", "194552.359000", "194554.359000", "194556.358000", "194558.359000", "194600.038000"],
      "InstanceCreationTime": ["193858.365000", "193859.357000", "193900.360000", "193900.365000", "193901.359000", "193902.359000", "193902.363000", "193903.360000", "193904.359000", "193905.359000", "193906.360000", "193908.360000", "193910.360000", "193912.360000", "193914.360000", "193916.360000", "193918.361000", "193920.361000", "193922.360000", "193924.360000", "193926.359000", "193928.360000", "193930.360000", "193932.358000", "193934.360000", "193936.361000", "193938.360000", "193940.361000", "193942.359000", "193944.360000", "193946.360000", "193948.360000", "193950.360000", "193952.359000", "193954.360000", "193956.361000", "193958.360000", "194000.360000", "194002.360000", "194004.359000", "194006.360000", "194008.360000", "194010.361000", "194012.361000", "194014.360000", "194016.359000", "194018.359000", "194020.360000", "194022.360000", "194024.360000", "194026.360000", "194028.361000", "194030.361000", "194032.360000", "194034.360000", "194036.359000", "194038.359000", "194040.360000", "194042.360000", "194044.360000", "194046.361000", "194048.360000", "194050.360000", "194052.359000", "194054.359000", "194056.359000", "194058.359000", "194100.380000", "194102.361000", "194104.361000", "194106.361000", "194108.361000", "194110.359000", "194112.359000", "194114.359000", "194116.359000", "194118.359000", "194120.361000", "194122.361000", "194124.361000", "194126.361000", "194128.360000", "194130.360000", "194132.359000", "194134.360000", "194136.359000", "194138.360000", "194140.360000", "194142.361000", "194144.361000", "194146.359000", "194148.359000", "194150.359000", "194152.359000", "194154.359000", "194156.361000", "194158.360000", "194200.361000", "194202.359000", "194204.360000", "194206.359000", "194208.358000", "194210.359000", "194212.360000", "194214.361000", "194216.360000", "194218.361000", "194220.359000", "194222.359000", "194224.359000", "194226.359000", "194228.359000", "194230.360000", "194232.360000", "194234.360000", "194236.359000", "194238.359000", "194240.359000", "194242.359000", "194244.360000", "194246.360000", "194248.360000", "194250.360000", "194252.361000", "194254.360000", "194256.360000", "194258.359000", "194300.357000", "194302.359000", "194304.359000", "194306.360000", "194308.360000", "194310.361000", "194312.359000", "194314.358000", "194316.359000", "194318.359000", "194320.359000", "194322.360000", "194324.360000", "194326.360000", "194328.360000", "194330.359000", "194332.359000", "194334.359000", "194336.359000", "194338.359000", "194340.360000", "194342.360000", "194344.360000", "194346.360000", "194348.359000", "194350.359000", "194352.359000", "194354.359000", "194356.359000", "194358.360000", "194400.360000", "194402.359000", "194404.360000", "194406.360000", "194408.357000", "194410.358000", "194412.358000", "194414.359000", "194416.360000", "194418.360000", "194420.359000", "194422.360000", "194424.359000", "194426.359000", "194428.358000", "194430.357000", "194432.360000", "194434.359000", "194436.361000", "194438.360000", "194440.359000", "194442.359000", "194444.360000", "194446.360000", "194448.359000", "194450.360000", "194452.360000", "194454.360000", "194456.360000", "194458.359000", "194500.360000", "194502.359000", "194504.359000", "194506.359000", "194508.360000", "194510.359000", "194512.361000", "194514.360000", "194516.359000", "194518.359000", "194520.359000", "194522.359000", "194524.359000", "194526.360000", "194528.360000", "194530.360000", "194532.359000", "194534.359000", "194536.359000", "194538.359000", "194540.359000", "194542.360000", "194544.361000", "194546.361000", "194548.360000", "194550.359000", "194552.359000", "194554.359000", "194556.358000", "194558.359000", "194600.038000"],
      "InstanceNumber": [1, 2, 3, 4, 5, 6, 7, 8, 9, 10, 11, 12, 13, 14, 15, 16, 17, 18, 19, 20, 21, 22, 23, 24, 25, 26, 27, 28, 29, 30, 31, 32, 33, 34, 35, 36, 37, 38, 39, 40, 41, 42, 43, 44, 45, 46, 47, 48, 49, 50, 51, 52, 53, 54, 55, 56, 57, 58, 59, 60, 61, 62, 63, 64, 65, 66, 67, 68, 69, 70, 71, 72, 73, 74, 75, 76, 77, 78, 79, 80, 81, 82, 83, 84, 85, 86, 87, 88, 89, 90, 91, 92, 93, 94, 95, 96, 97, 98, 99, 100, 101, 102, 103, 104, 105, 106, 107, 108, 109, 110, 111, 112, 113, 114, 115, 116, 117, 118, 119, 120, 121, 122, 123, 124, 125, 126, 127, 128, 129, 130, 131, 132, 133, 134, 135, 136, 137, 138, 139, 140, 141, 142, 143, 144, 145, 146, 147, 148, 149, 150, 151, 152, 153, 154, 155, 156, 157, 158, 159, 160, 161, 162, 163, 164, 165, 166, 167, 168, 169, 170, 171, 172, 173, 174, 175, 176, 177, 178, 179, 180, 181, 182, 183, 184, 185, 186, 187, 188, 189, 190, 191, 192, 193, 194, 195, 196, 197, 198, 199, 200, 201, 202, 203, 204, 205, 206, 207, 208, 209, 210, 211, 212, 213, 214, 215, 216, 217, 218],
      "WindowCenter": [18902.0, 18846.0, 18853.0, 18865.0, 18863.0, 18850.0, 18837.0, 18816.0, 18825.0, 18815.0, 18806.0, 18827.0, 18844.0, 18823.0, 18815.0, 18783.0, 18778.0, 18767.0, 18797.0, 18823.0, 18834.0, 18828.0, 18818.0, 18814.0, 18792.0, 18781.0, 18778.0, 18808.0, 18834.0, 18844.0, 18833.0, 18825.0, 18823.0, 18829.0, 18847.0, 18850.0, 18832.0, 18812.0, 18832.0, 18809.0, 18796.0, 18780.0, 18793.0, 18789.0, 18798.0, 18788.0, 18802.0, 18794.0, 18810.0, 18808.0, 18753.0, 18810.0, 18758.0, 18769.0, 18794.0, 18769.0, 18763.0, 18889.0, 18766.0, 18776.0, 18749.0, 18749.0, 18748.0, 18735.0, 18717.0, 18722.0, 18685.0, 18713.0, 18712.0, 18727.0, 18742.0, 18787.0, 18741.0, 18864.0, 18869.0, 18874.0, 18851.0, 18879.0, 18860.0, 18850.0, 18848.0, 18843.0, 18835.0, 18830.0, 18835.0, 18831.0, 18867.0, 18867.0, 18844.0, 18886.0, 18883.0, 18864.0, 18814.0, 18792.0, 18784.0, 18808.0, 18813.0, 18789.0, 18790.0, 18804.0, 18793.0, 18769.0, 18707.0, 18707.0, 18806.0, 18689.0, 18965.0, 18861.0, 18845.0, 18818.0, 18788.0, 18747.0, 18700.0, 18715.0, 18728.0, 18739.0, 18743.0, 18762.0, 18760.0, 18753.0, 18773.0, 18746.0, 18723.0, 18704.0, 18716.0, 18714.0, 18729.0, 18749.0, 18772.0, 18789.0, 18801.0, 18763.0, 18782.0, 18715.0, 18735.0, 18750.0, 18769.0, 18757.0, 18747.0, 18754.0, 18748.0, 18692.0, 18757.0, 18803.0, 18833.0, 18841.0, 18808.0, 18827.0, 18850.0, 18828.0, 18830.0, 18752.0, 18720.0, 18713.0, 18750.0, 18739.0, 18758.0, 18739.0, 18743.0, 18752.0, 18753.0, 18770.0, 18795.0, 18794.0, 18792.0, 18799.0, 18794.0, 18820.0, 18810.0, 18778.0, 18781.0, 18795.0, 18807.0, 18775.0, 18597.0, 18724.0, 18774.0, 18771.0, 18781.0, 18788.0, 18792.0, 18779.0, 18774.0, 18787.0, 18773.0, 18779.0, 18772.0, 18787.0, 18776.0, 18795.0, 18811.0, 18788.0, 18769.0, 18759.0, 18754.0, 18758.0, 18743.0, 18763.0, 18757.0, 18762.0, 18766.0, 18733.0, 18752.0, 18719.0, 18709.0, 18709.0, 18722.0, 18723.0, 18711.0, 18732.0, 18749.0, 18743.0, 18740.0, 18751.0, 18759.0, 18775.0, 18752.0, 18739.0],
      "WindowWidth": [46588.0, 46495.0, 46513.0, 46590.0, 46565.0, 46531.0, 46463.0, 46448.0, 46420.0, 46400.0, 46392.0, 46458.0, 46507.0, 46441.0, 46420.0, 46348.0, 46309.0, 46316.0, 46375.0, 46501.0, 46483.0, 46467.0, 46426.0, 46445.0, 46392.0, 46349.0, 46349.0, 46395.0, 46451.0, 46495.0, 46486.0, 46457.0, 46454.0, 46482.0, 46519.0, 46532.0, 46484.0, 46459.0, 46461.0, 46394.0, 46347.0, 46313.0, 46345.0, 46365.0, 46362.0, 46296.0, 46354.0, 46348.0, 46385.0, 46372.0, 46260.0, 46399.0, 46298.0, 46301.0, 46348.0, 46342.0, 46232.0, 46636.0, 46332.0, 46319.0, 46232.0, 46194.0, 46192.0, 46207.0, 46180.0, 46135.0, 46130.0, 46189.0, 46210.0, 46219.0, 46272.0, 46386.0, 46243.0, 46474.0, 46570.0, 46596.0, 46567.0, 46648.0, 46560.0, 46542.0, 46517.0, 46491.0, 46462.0, 46458.0, 46473.0, 46495.0, 46580.0, 46544.0, 46536.0, 46676.0, 46613.0, 46492.0, 46360.0, 46296.0, 46280.0, 46356.0, 46311.0, 46233.0, 46263.0, 46331.0, 46279.0, 46293.0, 46134.0, 46071.0, 46356.0, 46042.0, 46704.0, 46500.0, 46395.0, 46327.0, 46289.0, 46197.0, 46105.0, 46165.0, 46221.0, 46252.0, 46244.0, 46308.0, 46297.0, 46291.0, 46309.0, 46226.0, 46162.0, 46111.0, 46111.0, 46144.0, 46217.0, 46279.0, 46402.0, 46438.0, 46470.0, 46325.0, 46310.0, 46180.0, 46207.0, 46279.0, 46318.0, 46259.0, 46218.0, 46225.0, 46222.0, 45989.0, 46124.0, 46322.0, 46381.0, 46326.0, 46291.0, 46341.0, 46418.0, 46344.0, 46418.0, 46209.0, 46160.0, 46120.0, 46203.0, 46193.0, 46221.0, 46170.0, 46151.0, 46136.0, 46206.0, 46253.0, 46308.0, 46305.0, 46303.0, 46287.0, 46332.0, 46386.0, 46331.0, 46238.0, 46282.0, 46318.0, 46374.0, 46256.0, 45784.0, 46107.0, 46286.0, 46285.0, 46283.0, 46301.0, 46270.0, 46236.0, 46255.0, 46277.0, 46256.0, 46247.0, 46265.0, 46278.0, 46292.0, 46320.0, 46309.0, 46290.0, 46193.0, 46222.0, 46254.0, 46231.0, 46090.0, 46168.0, 46219.0, 46247.0, 46261.0, 46176.0, 46176.0, 46062.0, 46041.0, 46018.0, 46087.0, 46113.0, 46101.0, 46166.0, 46190.0, 46128.0, 46135.0, 46194.0, 46246.0, 46258.0, 46180.0, 46172.0]
    },
    "slices": {}
  }
}