{
  "AcquisitionMatrixPE": 116,
  "AcquisitionNumber": 1,
  "AcquisitionTime": "19:46:56.177500",
  "BandwidthPerPixelPhaseEncode": 18.539,
  "BaseResolution": 116,
  "BodyPartExamined": "HEAD",
  "ConsistencyInfo": "N4_VD13D_LATEST_20130810",
  "ConversionSoftware": "dcm2niix",
  "ConversionSoftwareVersion": "v1.0.20190410  (JP2:OpenJPEG) (JP-LS:CharLS) GCC5.5.0",
  "DerivedVendorReportedEchoSpacing": 0.000930006,
  "DeviceSerialNumber": "66014",
  "DwellTime": 3e-06,
  "EchoTime": 0.03,
  "EchoTrainLength": 50,
  "EffectiveEchoSpacing": 0.000465003,
  "FlipAngle": 81,
  "ImageComments": "Unaliased_MB3_PE4",
  "ImageOrientationPatientDICOM": [0.999493, -0.0317501, -0.00224463, 0.0314103, 0.995285, -0.0917646],
  "ImageType": [
    "ORIGINAL",
    "PRIMARY",
    "M",
    "MB",
    "ND",
    "MOSAIC"
],
  "ImagingFrequency": 123.261,
  "InPlanePhaseEncodingDirectionDICOM": "COL",
  "InstitutionAddress": "Yiheyuan_Road_5_Beijing_Haidian_CN_100871",
  "InstitutionName": "Peking_University",
  "InstitutionalDepartmentName": "Department",
  "MRAcquisitionType": "2D",
  "MagneticFieldStrength": 3,
  "Manufacturer": "Siemens",
  "ManufacturersModelName": "Prisma",
  "Modality": "MR",
  "MultibandAccelerationFactor": 3,
  "ParallelReductionFactorInPlane": 2,
  "PartialFourier": 0.875,
  "PatientPosition": "HFS",
  "PercentPhaseFOV": 100,
  "PhaseEncodingDirection": "j-",
  "PhaseEncodingSteps": 101,
  "PhaseResolution": 1,
  "PixelBandwidth": 1435,
  "ProcedureStepDescription": "Research_Projects_64CH",
  "ProtocolName": "mbep2d_bold_MB3_learn6",
  "PulseSequenceDetails": "%CustomerSeq%_cmrr_mbep2d_bold",
  "ReceiveCoilActiveElements": "HC1-7",
  "ReceiveCoilName": "HeadNeck_64",
  "ReconMatrixPE": 116,
  "RefLinesPE": 44,
  "RepetitionTime": 2,
  "SAR": 0.0536427,
  "ScanOptions": "PFP_FS",
  "ScanningSequence": "EP",
  "SequenceName": "epfid2d1_116",
  "SequenceVariant": "SK_SS",
  "SeriesDescription": "mbep2d_bold_MB3_learn6",
  "SeriesNumber": 11,
  "ShimSetting": [-3446, -2103, -1997, 399, 17, -282, -57, 31],
  "SliceThickness": 1.9,
  "SliceTiming": [0, 0.9075, 1.815, 0.7425, 1.65, 0.5775, 1.485, 0.4125, 1.32, 0.2475, 1.155, 0.0825, 0.99, 1.8975, 0.825, 1.7325, 0.66, 1.5675, 0.495, 1.4025, 0.33, 1.2375, 0.165, 1.0725, 0, 0.9075, 1.815, 0.7425, 1.65, 0.5775, 1.485, 0.4125, 1.32, 0.2475, 1.155, 0.0825, 0.99, 1.8975, 0.825, 1.7325, 0.66, 1.5675, 0.495, 1.4025, 0.33, 1.2375, 0.165, 1.0725, 0, 0.9075, 1.815, 0.7425, 1.65, 0.5775, 1.485, 0.4125, 1.32, 0.2475, 1.155, 0.0825, 0.99, 1.8975, 0.825, 1.7325, 0.66, 1.5675, 0.495, 1.4025, 0.33, 1.2375, 0.165, 1.0725],
  "SoftwareVersions": "syngo_MR_D13D",
  "SpacingBetweenSlices": 1.9,
  "StationName": "AWP66014",
  "TaskName": "updating",
  "TotalReadoutTime": 0.0534753,
  "TxRefAmp": 240.895,
  "WipMemBlock": "696de5ef-76a0-4d75-8540-4624f1595922||Sequence: vd13d/master r/0735857; Nov 19 2014 09:21:40 by eja",
  "dcmmeta_affine": [
    [-1.8955907821655273, 0.05957132205367088, -0.00978040136396885, 106.5945053100586],
    [0.06021568924188614, 1.887609839439392, -0.1741303950548172, -98.74136352539062],
    [-0.004257054999470711, 0.17403626441955566, 1.8919786214828491, -87.89838409423828],
    [0.0, 0.0, 0.0, 1.0]
],
  "dcmmeta_reorient_transform": [
    [0.0, -1.0, 0.0, 115.0],
    [1.0, 0.0, 0.0, 0.0],
    [0.0, 0.0, 1.0, 0.0],
    [0.0, 0.0, 0.0, 1.0]
],
  "dcmmeta_shape": [116, 116, 72, 218],
  "dcmmeta_slice_dim": 2,
  "dcmmeta_version": 0.6,
  "global": {
    "const": {
      "AcquisitionMatrix": [116, 0, 0, 116],
      "AngioFlag": "N",
      "BitsAllocated": 16,
      "BitsStored": 16,
      "BodyPartExamined": "HEAD",
      "Columns": 1044,
      "EchoNumbers": 1,
      "EchoTime": 30.0,
      "EchoTrainLength": 50,
      "FlipAngle": 81.0,
      "HighBit": 15,
      "ImageOrientationPatient": [0.99949331834045, -0.0317500902882, -0.0022446290299, 0.03141033296032, 0.99528521222533, -0.0917645754575],
      "ImagePositionPatient": [-1020.6404185872, -966.24468626793, 14.843885288338],
      "ImageType": [
        "ORIGINAL",
        "PRIMARY",
        "M",
        "MB",
        "ND",
        "MOSAIC"
],
      "ImagedNucleus": "1H",
      "ImagingFrequency": 123.26064,
      "InPlanePhaseEncodingDirection": "COL",
      "LargestImagePixelValue": 65535,
      "MRAcquisitionType": "2D",
      "MagneticFieldStrength": 3.0,
      "Manufacturer": "SIEMENS",
      "ManufacturerModelName": "Prisma",
      "Modality": "MR",
      "NumberOfAverages": 1.0,
      "NumberOfPhaseEncodingSteps": 101,
      "PercentPhaseFieldOfView": 100.0,
      "PercentSampling": 100.0,
      "PerformedProcedureStepStartTime": "184304.693000",
      "PhotometricInterpretation": "MONOCHROME2",
      "PixelBandwidth": 1435.0,
      "PixelRepresentation": 0,
      "PixelSpacing": [1.8965517282486, 1.8965517282486],
      "ProtocolName": "mbep2d_bold_MB3_learn6",
      "RepetitionTime": 2000.0,
      "Rows": 1044,
      "SAR": 0.05364270311614,
      "SamplesPerPixel": 1,
      "ScanOptions": [
        "PFP",
        "FS"
],
      "ScanningSequence": "EP",
      "SequenceName": "epfid2d1_116",
      "SequenceVariant": [
        "SK",
        "SS"
],
      "SeriesDescription": "mbep2d_bold_MB3_learn6",
      "SeriesNumber": 11,
      "SeriesTime": "194711.175000",
      "SliceLocation": -79.026593277606,
      "SliceThickness": 1.8999999761581,
      "SmallestImagePixelValue": 0,
      "SoftwareVersions": "syngo MR D13D",
      "SpacingBetweenSlices": 1.8999999914427,
      "SpecificCharacterSet": "ISO_IR 100",
      "StudyID": "1",
      "StudyTime": "184304.620000",
      "TimeOfLastCalibration": ["123723.000000", "123723.000000"],
      "TransmitCoilName": "Body",
      "VariableFlipAngleFlag": "N",
      "WindowCenterWidthExplanation": "Algo1",
      "dBdt": 0.0},
    "slices": {}
  },
  "time": {
    "samples": {
      "AcquisitionNumber": [1, 2, 3, 4, 5, 6, 7, 8, 9, 10, 11, 12, 13, 14, 15, 16, 17, 18, 19, 20, 21, 22, 23, 24, 25, 26, 27, 28, 29, 30, 31, 32, 33, 34, 35, 36, 37, 38, 39, 40, 41, 42, 43, 44, 45, 46, 47, 48, 49, 50, 51, 52, 53, 54, 55, 56, 57, 58, 59, 60, 61, 62, 63, 64, 65, 66, 67, 68, 69, 70, 71, 72, 73, 74, 75, 76, 77, 78, 79, 80, 81, 82, 83, 84, 85, 86, 87, 88, 89, 90, 91, 92, 93, 94, 95, 96, 97, 98, 99, 100, 101, 102, 103, 104, 105, 106, 107, 108, 109, 110, 111, 112, 113, 114, 115, 116, 117, 118, 119, 120, 121, 122, 123, 124, 125, 126, 127, 128, 129, 130, 131, 132, 133, 134, 135, 136, 137, 138, 139, 140, 141, 142, 143, 144, 145, 146, 147, 148, 149, 150, 151, 152, 153, 154, 155, 156, 157, 158, 159, 160, 161, 162, 163, 164, 165, 166, 167, 168, 169, 170, 171, 172, 173, 174, 175, 176, 177, 178, 179, 180, 181, 182, 183, 184, 185, 186, 187, 188, 189, 190, 191, 192, 193, 194, 195, 196, 197, 198, 199, 200, 201, 202, 203, 204, 205, 206, 207, 208, 209, 210, 211, 212, 213, 214, 215, 216, 217, 218],
      "AcquisitionTime": ["194656.177500", "194658.180000", "194700.180000", "194702.180000", "194704.180000", "194706.180000", "194708.180000", "194710.180000", "194712.180000", "194714.180000", "194716.180000", "194718.180000", "194720.180000", "194722.180000", "194724.180000", "194726.180000", "194728.180000", "194730.180000", "194732.180000", "194734.180000", "194736.180000", "194738.180000", "194740.180000", "194742.180000", "194744.180000", "194746.180000", "194748.180000", "194750.180000", "194752.180000", "194754.180000", "194756.180000", "194758.180000", "194800.180000", "194802.180000", "194804.180000", "194806.180000", "194808.180000", "194810.180000", "194812.180000", "194814.180000", "194816.180000", "194818.180000", "194820.180000", "194822.180000", "194824.180000", "194826.180000", "194828.180000", "194830.180000", "194832.180000", "194834.180000", "194836.180000", "194838.180000", "194840.180000", "194842.180000", "194844.180000", "194846.180000", "194848.180000", "194850.180000", "194852.180000", "194854.180000", "194856.180000", "194858.180000", "194900.180000", "194902.180000", "194904.180000", "194906.180000", "194908.180000", "194910.180000", "194912.180000", "194914.180000", "194916.180000", "194918.180000", "194920.180000", "194922.180000", "194924.180000", "194926.180000", "194928.180000", "194930.180000", "194932.180000", "194934.180000", "194936.180000", "194938.180000", "194940.180000", "194942.180000", "194944.180000", "194946.180000", "194948.180000", "194950.180000", "194952.180000", "194954.180000", "194956.180000", "194958.180000", "195000.180000", "195002.180000", "195004.180000", "195006.180000", "195008.180000", "195010.180000", "195012.180000", "195014.180000", "195016.180000", "195018.180000", "195020.180000", "195022.180000", "195024.180000", "195026.180000", "195028.180000", "195030.180000", "195032.180000", "195034.180000", "195036.180000", "195038.180000", "195040.180000", "195042.180000", "195044.180000", "195046.180000", "195048.180000", "195050.180000", "195052.180000", "195054.180000", "195056.180000", "195058.180000", "195100.180000", "195102.180000", "195104.180000", "195106.180000", "195108.180000", "195110.180000", "195112.180000", "195114.180000", "195116.180000", "195118.180000", "195120.180000", "195122.180000", "195124.180000", "195126.180000", "195128.180000", "195130.180000", "195132.180000", "195134.180000", "195136.180000", "195138.180000", "195140.180000", "195142.180000", "195144.180000", "195146.180000", "195148.180000", "195150.180000", "195152.180000", "195154.180000", "195156.180000", "195158.180000", "195200.180000", "195202.180000", "195204.180000", "195206.180000", "195208.180000", "195210.180000", "195212.180000", "195214.180000", "195216.180000", "195218.180000", "195220.180000", "195222.180000", "195224.180000", "195226.180000", "195228.180000", "195230.180000", "195232.180000", "195234.180000", "195236.180000", "195238.180000", "195240.180000", "195242.180000", "195244.180000", "195246.180000", "195248.180000", "195250.180000", "195252.180000", "195254.180000", "195256.180000", "195258.180000", "195300.180000", "195302.180000", "195304.180000", "195306.180000", "195308.180000", "195310.180000", "195312.180000", "195314.180000", "195316.180000", "195318.180000", "195320.180000", "195322.180000", "195324.180000", "195326.180000", "195328.180000", "195330.180000", "195332.180000", "195334.180000", "195336.180000", "195338.180000", "195340.180000", "195342.180000", "195344.180000", "195346.180000", "195348.180000", "195350.180000", "195352.180000", "195354.180000", "195356.180000", "195358.180000", "195400.180000", "195402.180000", "195404.180000", "195406.180000", "195408.180000", "195410.180000"],
      "ContentTime": ["194711.180000", "194712.173000", "194712.177000", "194713.174000", "194714.173000", "194714.177000", "194715.173000", "194716.172000", "194717.173000", "194717.177000", "194719.174000", "194721.173000", "194723.174000", "194725.173000", "194727.174000", "194729.174000", "194731.174000", "194733.174000", "194735.173000", "194737.173000", "194739.174000", "194741.173000", "194743.173000", "194745.174000", "194747.174000", "194749.174000", "194751.173000", "194753.173000", "194755.173000", "194757.173000", "194759.173000", "194801.173000", "194803.174000", "194805.174000", "194807.174000", "194809.173000", "194811.173000", "194813.173000", "194815.172000", "194817.172000", "194819.172000", "194821.174000", "194823.174000", "194825.174000", "194827.172000", "194829.173000", "194831.173000", "194833.173000", "194835.173000", "194837.174000", "194839.175000", "194841.174000", "194843.174000", "194845.173000", "194847.173000", "194849.183000", "194851.173000", "194853.173000", "194855.174000", "194857.173000", "194859.174000", "194901.173000", "194903.173000", "194905.173000", "194907.173000", "194909.172000", "194911.173000", "194913.174000", "194915.174000", "194917.174000", "194919.173000", "194921.173000", "194923.173000", "194925.173000", "194927.173000", "194929.173000", "194931.174000", "194933.173000", "194935.173000", "194937.173000", "194939.173000", "194941.173000", "194943.173000", "194945.173000", "194947.174000", "194949.174000", "194951.174000", "194953.174000", "194955.173000", "194957.173000", "194959.173000", "195001.173000", "195003.173000", "195005.174000", "195007.174000", "195009.174000", "195011.173000", "195013.173000", "195015.173000", "195017.173000", "195019.173000", "195021.173000", "195023.175000", "195025.174000", "195027.174000", "195029.173000", "195031.172000", "195033.173000", "195035.174000", "195037.173000", "195039.173000", "195041.174000", "195043.174000", "195045.174000", "195047.173000", "195049.174000", "195051.173000", "195053.173000", "195055.173000", "195057.174000", "195059.174000", "195101.174000", "195103.172000", "195105.174000", "195107.173000", "195109.173000", "195111.171000", "195113.173000", "195115.174000", "195117.174000", "195119.174000", "195121.173000", "195123.174000", "195125.173000", "195127.174000", "195129.173000", "195131.174000", "195133.174000", "195135.174000", "195137.175000", "195139.174000", "195141.173000", "195143.173000", "195145.173000", "195147.173000", "195149.173000", "195151.173000", "195153.174000", "195155.174000", "195157.173000", "195159.173000", "195201.173000", "195203.173000", "195205.173000", "195207.173000", "195209.173000", "195211.172000", "195213.173000", "195215.172000", "195217.171000", "195219.171000", "195221.172000", "195223.172000", "195225.172000", "195227.172000", "195229.173000", "195231.173000", "195233.174000", "195235.173000", "195237.173000", "195239.173000", "195241.173000", "195243.172000", "195245.174000", "195247.174000", "195249.173000", "195251.173000", "195253.173000", "195255.173000", "195257.173000", "195259.174000", "195301.174000", "195303.174000", "195305.173000", "195307.172000", "195309.172000", "195311.173000", "195313.172000", "195315.172000", "195317.173000", "195319.173000", "195321.173000", "195323.173000", "195325.172000", "195327.172000", "195329.172000", "195331.172000", "195333.173000", "195335.174000", "195337.173000", "195339.174000", "195341.173000", "195343.172000", "195345.173000", "195347.173000", "195349.173000", "195351.173000", "195353.174000", "195355.174000", "195357.184000", "195359.173000", "195401.173000", "195403.173000", "195405.173000", "195407.173000", "195409.174000", "195411.174000", "195412.710000"],
      "InstanceCreationTime": ["194711.180000", "194712.173000", "194712.177000", "194713.174000", "194714.173000", "194714.177000", "194715.173000", "194716.172000", "194717.173000", "194717.177000", "194719.174000", "194721.173000", "194723.174000", "194725.173000", "194727.174000", "194729.174000", "194731.174000", "194733.174000", "194735.173000", "194737.173000", "194739.174000", "194741.173000", "194743.173000", "194745.174000", "194747.174000", "194749.174000", "194751.173000", "194753.173000", "194755.173000", "194757.173000", "194759.173000", "194801.173000", "194803.174000", "194805.174000", "194807.174000", "194809.173000", "194811.173000", "194813.173000", "194815.172000", "194817.172000", "194819.172000", "194821.174000", "194823.174000", "194825.174000", "194827.172000", "194829.173000", "194831.173000", "194833.173000", "194835.173000", "194837.174000", "194839.175000", "194841.174000", "194843.174000", "194845.173000", "194847.173000", "194849.183000", "194851.173000", "194853.173000", "194855.174000", "194857.173000", "194859.174000", "194901.173000", "194903.173000", "194905.173000", "194907.173000", "194909.172000", "194911.173000", "194913.174000", "194915.174000", "194917.174000", "194919.173000", "194921.173000", "194923.173000", "194925.173000", "194927.173000", "194929.173000", "194931.174000", "194933.173000", "194935.173000", "194937.173000", "194939.173000", "194941.173000", "194943.173000", "194945.173000", "194947.174000", "194949.174000", "194951.174000", "194953.174000", "194955.173000", "194957.173000", "194959.173000", "195001.173000", "195003.173000", "195005.174000", "195007.174000", "195009.174000", "195011.173000", "195013.173000", "195015.173000", "195017.173000", "195019.173000", "195021.173000", "195023.175000", "195025.174000", "195027.174000", "195029.173000", "195031.172000", "195033.173000", "195035.174000", "195037.173000", "195039.173000", "195041.174000", "195043.174000", "195045.174000", "195047.173000", "195049.174000", "195051.173000", "195053.173000", "195055.173000", "195057.174000", "195059.174000", "195101.174000", "195103.172000", "195105.174000", "195107.173000", "195109.173000", "195111.171000", "195113.173000", "195115.174000", "195117.174000", "195119.174000", "195121.173000", "195123.174000", "195125.173000", "195127.174000", "195129.173000", "195131.174000", "195133.174000", "195135.174000", "195137.175000", "195139.174000", "195141.173000", "195143.173000", "195145.173000", "195147.173000", "195149.173000", "195151.173000", "195153.174000", "195155.174000", "195157.173000", "195159.173000", "195201.173000", "195203.173000", "195205.173000", "195207.173000", "195209.173000", "195211.172000", "195213.173000", "195215.172000", "195217.171000", "195219.171000", "195221.172000", "195223.172000", "195225.172000", "195227.172000", "195229.173000", "195231.173000", "195233.174000", "195235.173000", "195237.173000", "195239.173000", "195241.173000", "195243.172000", "195245.174000", "195247.174000", "195249.173000", "195251.173000", "195253.173000", "195255.173000", "195257.173000", "195259.174000", "195301.174000", "195303.174000", "195305.173000", "195307.172000", "195309.172000", "195311.173000", "195313.172000", "195315.172000", "195317.173000", "195319.173000", "195321.173000", "195323.173000", "195325.172000", "195327.172000", "195329.172000", "195331.172000", "195333.173000", "195335.174000", "195337.173000", "195339.174000", "195341.173000", "195343.172000", "195345.173000", "195347.173000", "195349.173000", "195351.173000", "195353.174000", "195355.174000", "195357.184000", "195359.173000", "195401.173000", "195403.173000", "195405.173000", "195407.173000", "195409.174000", "195411.174000", "195412.710000"],
      "InstanceNumber": [1, 2, 3, 4, 5, 6, 7, 8, 9, 10, 11, 12, 13, 14, 15, 16, 17, 18, 19, 20, 21, 22, 23, 24, 25, 26, 27, 28, 29, 30, 31, 32, 33, 34, 35, 36, 37, 38, 39, 40, 41, 42, 43, 44, 45, 46, 47, 48, 49, 50, 51, 52, 53, 54, 55, 56, 57, 58, 59, 60, 61, 62, 63, 64, 65, 66, 67, 68, 69, 70, 71, 72, 73, 74, 75, 76, 77, 78, 79, 80, 81, 82, 83, 84, 85, 86, 87, 88, 89, 90, 91, 92, 93, 94, 95, 96, 97, 98, 99, 100, 101, 102, 103, 104, 105, 106, 107, 108, 109, 110, 111, 112, 113, 114, 115, 116, 117, 118, 119, 120, 121, 122, 123, 124, 125, 126, 127, 128, 129, 130, 131, 132, 133, 134, 135, 136, 137, 138, 139, 140, 141, 142, 143, 144, 145, 146, 147, 148, 149, 150, 151, 152, 153, 154, 155, 156, 157, 158, 159, 160, 161, 162, 163, 164, 165, 166, 167, 168, 169, 170, 171, 172, 173, 174, 175, 176, 177, 178, 179, 180, 181, 182, 183, 184, 185, 186, 187, 188, 189, 190, 191, 192, 193, 194, 195, 196, 197, 198, 199, 200, 201, 202, 203, 204, 205, 206, 207, 208, 209, 210, 211, 212, 213, 214, 215, 216, 217, 218],
      "WindowCenter": [18931.0, 18838.0, 18832.0, 18841.0, 18842.0, 18835.0, 18831.0, 18825.0, 18826.0, 18819.0, 18826.0, 18839.0, 18832.0, 18802.0, 18798.0, 18788.0, 18776.0, 18767.0, 18760.0, 18774.0, 18752.0, 18784.0, 18788.0, 18815.0, 18807.0, 18677.0, 18966.0, 18894.0, 18879.0, 18915.0, 18962.0, 18956.0, 18905.0, 18942.0, 18978.0, 18979.0, 18993.0, 18970.0, 18947.0, 18906.0, 18892.0, 18894.0, 18896.0, 18894.0, 18932.0, 18928.0, 18933.0, 18948.0, 18953.0, 18939.0, 18934.0, 18937.0, 18950.0, 18942.0, 18996.0, 18992.0, 18996.0, 18940.0, 18988.0, 18269.0, 19063.0, 18890.0, 18849.0, 18823.0, 18816.0, 18777.0, 18771.0, 18758.0, 18787.0, 18808.0, 18805.0, 18817.0, 18837.0, 18853.0, 18860.0, 18869.0, 18867.0, 18850.0, 18915.0, 18857.0, 18751.0, 18840.0, 18834.0, 18825.0, 18832.0, 18813.0, 18800.0, 18820.0, 18809.0, 18813.0, 18789.0, 18817.0, 18819.0, 18833.0, 18839.0, 18855.0, 18865.0, 18845.0, 18840.0, 18841.0, 18845.0, 18808.0, 18806.0, 18808.0, 18807.0, 18818.0, 18826.0, 18800.0, 18813.0, 18829.0, 18836.0, 18869.0, 18847.0, 18871.0, 18898.0, 18878.0, 18895.0, 18877.0, 18786.0, 18828.0, 18805.0, 18811.0, 18753.0, 18788.0, 18818.0, 18810.0, 18831.0, 18811.0, 18792.0, 18819.0, 18829.0, 18829.0, 18826.0, 18778.0, 18733.0, 18745.0, 18813.0, 18791.0, 18774.0, 18751.0, 18721.0, 18688.0, 18713.0, 18726.0, 18710.0, 18749.0, 18718.0, 18724.0, 18738.0, 18709.0, 18707.0, 18732.0, 18609.0, 18815.0, 18630.0, 18818.0, 18760.0, 18744.0, 18759.0, 18757.0, 18740.0, 18740.0, 18735.0, 18765.0, 18793.0, 18804.0, 18820.0, 18829.0, 18806.0, 18640.0, 18755.0, 18739.0, 18765.0, 18780.0, 18782.0, 18787.0, 18800.0, 18830.0, 18839.0, 18837.0, 18742.0, 18756.0, 18799.0, 18798.0, 18816.0, 18782.0, 18695.0, 18831.0, 18912.0, 18880.0, 18861.0, 18888.0, 18867.0, 18819.0, 18822.0, 18774.0, 18798.0, 18807.0, 18792.0, 18787.0, 18760.0, 18782.0, 18793.0, 18810.0, 18822.0, 18829.0, 18781.0, 18732.0, 18772.0, 18794.0, 18772.0, 18769.0, 18703.0, 18709.0, 18699.0, 18732.0, 18746.0, 18759.0],
      "WindowWidth": [46491.0, 46263.0, 46223.0, 46253.0, 46301.0, 46294.0, 46293.0, 46239.0, 46251.0, 46296.0, 46287.0, 46319.0, 46254.0, 46232.0, 46252.0, 46208.0, 46141.0, 46122.0, 46153.0, 46188.0, 46171.0, 46252.0, 46185.0, 46267.0, 46272.0, 45766.0, 46574.0, 46354.0, 46330.0, 46408.0, 46525.0, 46486.0, 46367.0, 46490.0, 46551.0, 46575.0, 46576.0, 46598.0, 46523.0, 46411.0, 46294.0, 46310.0, 46301.0, 46335.0, 46352.0, 46418.0, 46409.0, 46455.0, 46507.0, 46461.0, 46425.0, 46437.0, 46505.0, 46510.0, 46598.0, 46607.0, 46589.0, 46460.0, 46550.0, 44728.0, 46754.0, 46387.0, 46280.0, 46180.0, 46130.0, 46052.0, 45989.0, 45979.0, 46062.0, 46101.0, 46122.0, 46144.0, 46264.0, 46301.0, 46319.0, 46328.0, 46338.0, 46278.0, 46420.0, 46265.0, 46026.0, 46245.0, 46192.0, 46217.0, 46203.0, 46118.0, 46107.0, 46148.0, 46137.0, 46092.0, 46096.0, 46124.0, 46204.0, 46226.0, 46253.0, 46301.0, 46275.0, 46233.0, 46241.0, 46257.0, 46236.0, 46159.0, 46146.0, 46124.0, 46138.0, 46170.0, 46172.0, 46117.0, 46150.0, 46199.0, 46227.0, 46265.0, 46270.0, 46302.0, 46322.0, 46330.0, 46333.0, 46306.0, 46065.0, 46229.0, 46219.0, 46200.0, 46031.0, 46138.0, 46189.0, 46188.0, 46231.0, 46226.0, 46155.0, 46227.0, 46247.0, 46268.0, 46196.0, 46085.0, 46002.0, 46038.0, 46245.0, 46163.0, 46118.0, 46053.0, 45911.0, 45789.0, 45860.0, 45954.0, 45937.0, 45997.0, 45894.0, 45949.0, 45968.0, 45911.0, 45890.0, 45946.0, 45684.0, 46206.0, 45759.0, 46234.0, 46093.0, 46102.0, 46111.0, 46089.0, 46052.0, 46021.0, 46050.0, 46145.0, 46215.0, 46223.0, 46280.0, 46278.0, 46199.0, 45795.0, 46045.0, 46050.0, 46129.0, 46131.0, 46144.0, 46127.0, 46173.0, 46256.0, 46311.0, 46295.0, 46081.0, 46044.0, 46190.0, 46188.0, 46228.0, 46168.0, 45944.0, 46221.0, 46303.0, 46316.0, 46290.0, 46331.0, 46291.0, 46199.0, 46222.0, 46148.0, 46203.0, 46223.0, 46188.0, 46139.0, 46095.0, 46158.0, 46180.0, 46204.0, 46249.0, 46279.0, 46121.0, 46005.0, 46151.0, 46226.0, 46208.0, 46112.0, 45946.0, 45948.0, 45952.0, 45966.0, 46015.0, 46094.0]
    },
    "slices": {}
  }
}