{
  "AcquisitionMatrixPE": 116,
  "AcquisitionNumber": 1,
  "AcquisitionTime": "19:22:4.000000",
  "BandwidthPerPixelPhaseEncode": 18.539,
  "BaseResolution": 116,
  "BodyPartExamined": "HEAD",
  "ConsistencyInfo": "N4_VD13D_LATEST_20130810",
  "ConversionSoftware": "dcm2niix",
  "ConversionSoftwareVersion": "v1.0.20190410  (JP2:OpenJPEG) (JP-LS:CharLS) GCC5.5.0",
  "DerivedVendorReportedEchoSpacing": 0.000930006,
  "DeviceSerialNumber": "66014",
  "DwellTime": 3e-06,
  "EchoTime": 0.03,
  "EchoTrainLength": 50,
  "EffectiveEchoSpacing": 0.000465003,
  "FlipAngle": 81,
  "ImageComments": "Unaliased_MB3_PE4",
  "ImageOrientationPatientDICOM": [0.999493, -0.0317501, -0.00224463, 0.0314103, 0.995285, -0.0917646],
  "ImageType": [
    "ORIGINAL",
    "PRIMARY",
    "M",
    "MB",
    "ND",
    "MOSAIC"
],
  "ImagingFrequency": 123.261,
  "InPlanePhaseEncodingDirectionDICOM": "COL",
  "InstitutionAddress": "Yiheyuan_Road_5_Beijing_Haidian_CN_100871",
  "InstitutionName": "Peking_University",
  "InstitutionalDepartmentName": "Department",
  "MRAcquisitionType": "2D",
  "MagneticFieldStrength": 3,
  "Manufacturer": "Siemens",
  "ManufacturersModelName": "Prisma",
  "Modality": "MR",
  "MultibandAccelerationFactor": 3,
  "ParallelReductionFactorInPlane": 2,
  "PartialFourier": 0.875,
  "PatientPosition": "HFS",
  "PercentPhaseFOV": 100,
  "PhaseEncodingDirection": "j-",
  "PhaseEncodingSteps": 101,
  "PhaseResolution": 1,
  "PixelBandwidth": 1435,
  "ProcedureStepDescription": "Research_Projects_64CH",
  "ProtocolName": "mbep2d_bold_MB3_learn3",
  "PulseSequenceDetails": "%CustomerSeq%_cmrr_mbep2d_bold",
  "ReceiveCoilActiveElements": "HC1-7",
  "ReceiveCoilName": "HeadNeck_64",
  "ReconMatrixPE": 116,
  "RefLinesPE": 44,
  "RepetitionTime": 2,
  "SAR": 0.0536427,
  "ScanOptions": "PFP_FS",
  "ScanningSequence": "EP",
  "SequenceName": "epfid2d1_116",
  "SequenceVariant": "SK_SS",
  "SeriesDescription": "mbep2d_bold_MB3_learn3",
  "SeriesNumber": 8,
  "ShimSetting": [-3446, -2103, -1997, 399, 17, -282, -57, 31],
  "SliceThickness": 1.9,
  "SliceTiming": [0, 0.9075, 1.815, 0.7425, 1.65, 0.5775, 1.485, 0.4125, 1.32, 0.2475, 1.155, 0.0825, 0.99, 1.8975, 0.825, 1.7325, 0.66, 1.5675, 0.495, 1.4025, 0.33, 1.2375, 0.165, 1.0725, 0, 0.9075, 1.815, 0.7425, 1.65, 0.5775, 1.485, 0.4125, 1.32, 0.2475, 1.155, 0.0825, 0.99, 1.8975, 0.825, 1.7325, 0.66, 1.5675, 0.495, 1.4025, 0.33, 1.2375, 0.165, 1.0725, 0, 0.9075, 1.815, 0.7425, 1.65, 0.5775, 1.485, 0.4125, 1.32, 0.2475, 1.155, 0.0825, 0.99, 1.8975, 0.825, 1.7325, 0.66, 1.5675, 0.495, 1.4025, 0.33, 1.2375, 0.165, 1.0725],
  "SoftwareVersions": "syngo_MR_D13D",
  "SpacingBetweenSlices": 1.9,
  "StationName": "AWP66014",
  "TaskName": "updating",
  "TotalReadoutTime": 0.0534753,
  "TxRefAmp": 240.895,
  "WipMemBlock": "1e9fb14c-b6f1-475b-a80d-cc8f556c2cd6||Sequence: vd13d/master r/0735857; Nov 19 2014 09:21:40 by eja",
  "dcmmeta_affine": [
    [-1.8955907821655273, 0.05957132205367088, -0.00978040136396885, 106.5945053100586],
    [0.06021568924188614, 1.887609839439392, -0.1741303950548172, -98.74136352539062],
    [-0.004257054999470711, 0.17403626441955566, 1.8919786214828491, -87.89838409423828],
    [0.0, 0.0, 0.0, 1.0]
],
  "dcmmeta_reorient_transform": [
    [0.0, -1.0, 0.0, 115.0],
    [1.0, 0.0, 0.0, 0.0],
    [0.0, 0.0, 1.0, 0.0],
    [0.0, 0.0, 0.0, 1.0]
],
  "dcmmeta_shape": [116, 116, 72, 218],
  "dcmmeta_slice_dim": 2,
  "dcmmeta_version": 0.6,
  "global": {
    "const": {
      "AcquisitionMatrix": [116, 0, 0, 116],
      "AngioFlag": "N",
      "BitsAllocated": 16,
      "BitsStored": 16,
      "BodyPartExamined": "HEAD",
      "Columns": 1044,
      "EchoNumbers": 1,
      "EchoTime": 30.0,
      "EchoTrainLength": 50,
      "FlipAngle": 81.0,
      "HighBit": 15,
      "ImageOrientationPatient": [0.99949331834045, -0.0317500902882, -0.0022446290299, 0.03141033296032, 0.99528521222533, -0.0917645754575],
      "ImagePositionPatient": [-1020.6404185872, -966.24468626793, 14.843885288338],
      "ImageType": [
        "ORIGINAL",
        "PRIMARY",
        "M",
        "MB",
        "ND",
        "MOSAIC"
],
      "ImagedNucleus": "1H",
      "ImagingFrequency": 123.260632,
      "InPlanePhaseEncodingDirection": "COL",
      "LargestImagePixelValue": 65535,
      "MRAcquisitionType": "2D",
      "MagneticFieldStrength": 3.0,
      "Manufacturer": "SIEMENS",
      "ManufacturerModelName": "Prisma",
      "Modality": "MR",
      "NumberOfAverages": 1.0,
      "NumberOfPhaseEncodingSteps": 101,
      "PercentPhaseFieldOfView": 100.0,
      "PercentSampling": 100.0,
      "PerformedProcedureStepStartTime": "184304.693000",
      "PhotometricInterpretation": "MONOCHROME2",
      "PixelBandwidth": 1435.0,
      "PixelRepresentation": 0,
      "PixelSpacing": [1.8965517282486, 1.8965517282486],
      "ProtocolName": "mbep2d_bold_MB3_learn3",
      "RepetitionTime": 2000.0,
      "Rows": 1044,
      "SAR": 0.05364270311614,
      "SamplesPerPixel": 1,
      "ScanOptions": [
        "PFP",
        "FS"
],
      "ScanningSequence": "EP",
      "SequenceName": "epfid2d1_116",
      "SequenceVariant": [
        "SK",
        "SS"
],
      "SeriesDescription": "mbep2d_bold_MB3_learn3",
      "SeriesNumber": 8,
      "SeriesTime": "192219.276000",
      "SliceLocation": -79.026593277606,
      "SliceThickness": 1.8999999761581,
      "SmallestImagePixelValue": 0,
      "SoftwareVersions": "syngo MR D13D",
      "SpacingBetweenSlices": 1.8999999914427,
      "SpecificCharacterSet": "ISO_IR 100",
      "StudyID": "1",
      "StudyTime": "184304.620000",
      "TimeOfLastCalibration": ["123723.000000", "123723.000000"],
      "TransmitCoilName": "Body",
      "VariableFlipAngleFlag": "N",
      "WindowCenterWidthExplanation": "Algo1",
      "dBdt": 0.0},
    "slices": {}
  },
  "time": {
    "samples": {
      "AcquisitionNumber": [1, 2, 3, 4, 5, 6, 7, 8, 9, 10, 11, 12, 13, 14, 15, 16, 17, 18, 19, 20, 21, 22, 23, 24, 25, 26, 27, 28, 29, 30, 31, 32, 33, 34, 35, 36, 37, 38, 39, 40, 41, 42, 43, 44, 45, 46, 47, 48, 49, 50, 51, 52, 53, 54, 55, 56, 57, 58, 59, 60, 61, 62, 63, 64, 65, 66, 67, 68, 69, 70, 71, 72, 73, 74, 75, 76, 77, 78, 79, 80, 81, 82, 83, 84, 85, 86, 87, 88, 89, 90, 91, 92, 93, 94, 95, 96, 97, 98, 99, 100, 101, 102, 103, 104, 105, 106, 107, 108, 109, 110, 111, 112, 113, 114, 115, 116, 117, 118, 119, 120, 121, 122, 123, 124, 125, 126, 127, 128, 129, 130, 131, 132, 133, 134, 135, 136, 137, 138, 139, 140, 141, 142, 143, 144, 145, 146, 147, 148, 149, 150, 151, 152, 153, 154, 155, 156, 157, 158, 159, 160, 161, 162, 163, 164, 165, 166, 167, 168, 169, 170, 171, 172, 173, 174, 175, 176, 177, 178, 179, 180, 181, 182, 183, 184, 185, 186, 187, 188, 189, 190, 191, 192, 193, 194, 195, 196, 197, 198, 199, 200, 201, 202, 203, 204, 205, 206, 207, 208, 209, 210, 211, 212, 213, 214, 215, 216, 217, 218],
      "AcquisitionTime": ["192204.000000", "192206.000000", "192208.000000", "192210.000000", "192212.000000", "192214.000000", "192216.000000", "192218.000000", "192220.000000", "192222.000000", "192224.000000", "192226.000000", "192228.000000", "192230.000000", "192232.000000", "192234.000000", "192236.000000", "192238.000000", "192240.000000", "192242.000000", "192244.000000", "192246.000000", "192248.000000", "192250.000000", "192252.000000", "192254.000000", "192256.000000", "192258.000000", "192300.000000", "192302.000000", "192304.000000", "192306.000000", "192308.000000", "192310.000000", "192312.000000", "192314.000000", "192316.000000", "192318.000000", "192320.000000", "192322.000000", "192324.000000", "192326.000000", "192328.000000", "192330.000000", "192332.000000", "192334.000000", "192336.000000", "192338.000000", "192340.000000", "192342.000000", "192344.000000", "192346.000000", "192348.000000", "192350.000000", "192352.000000", "192354.000000", "192356.000000", "192358.000000", "192400.000000", "192402.000000", "192404.000000", "192406.000000", "192408.000000", "192410.000000", "192412.000000", "192414.000000", "192416.000000", "192418.002500", "192420.002500", "192422.002500", "192424.002500", "192426.002500", "192428.002500", "192430.002500", "192432.002500", "192434.002500", "192436.002500", "192438.002500", "192440.002500", "192442.002500", "192444.002500", "192446.002500", "192448.002500", "192450.002500", "192452.002500", "192454.002500", "192456.002500", "192458.002500", "192500.002500", "192502.002500", "192504.002500", "192506.002500", "192508.002500", "192510.002500", "192512.002500", "192514.002500", "192516.002500", "192518.002500", "192520.002500", "192522.002500", "192524.002500", "192526.002500", "192528.002500", "192530.002500", "192532.002500", "192534.002500", "192536.002500", "192538.002500", "192540.002500", "192542.002500", "192544.002500", "192546.002500", "192548.002500", "192550.002500", "192552.002500", "192554.002500", "192556.002500", "192558.002500", "192600.002500", "192602.002500", "192604.002500", "192606.002500", "192608.002500", "192610.002500", "192612.002500", "192614.002500", "192616.002500", "192618.002500", "192620.002500", "192622.002500", "192624.002500", "192626.002500", "192628.002500", "192630.002500", "192632.002500", "192634.002500", "192636.002500", "192638.002500", "192640.002500", "192642.002500", "192644.002500", "192646.002500", "192648.002500", "192650.002500", "192652.002500", "192654.002500", "192656.002500", "192658.002500", "192700.002500", "192702.002500", "192704.002500", "192706.002500", "192708.002500", "192710.002500", "192712.002500", "192714.002500", "192716.002500", "192718.002500", "192720.002500", "192722.002500", "192724.002500", "192726.002500", "192728.002500", "192730.002500", "192732.002500", "192734.002500", "192736.002500", "192738.002500", "192740.002500", "192742.002500", "192744.002500", "192746.002500", "192748.002500", "192750.002500", "192752.002500", "192754.002500", "192756.002500", "192758.002500", "192800.002500", "192802.002500", "192804.002500", "192806.002500", "192808.002500", "192810.002500", "192812.002500", "192814.002500", "192816.002500", "192818.002500", "192820.002500", "192822.002500", "192824.002500", "192826.002500", "192828.002500", "192830.002500", "192832.002500", "192834.002500", "192836.002500", "192838.002500", "192840.002500", "192842.002500", "192844.002500", "192846.002500", "192848.002500", "192850.002500", "192852.002500", "192854.002500", "192856.002500", "192858.002500", "192900.002500", "192902.002500", "192904.002500", "192906.002500", "192908.002500", "192910.002500", "192912.002500", "192914.002500", "192916.002500", "192918.002500"],
      "ContentTime": ["192219.282000", "192220.274000", "192221.277000", "192221.281000", "192222.274000", "192223.273000", "192223.277000", "192224.274000", "192225.274000", "192226.274000", "192227.274000", "192228.774000", "192230.775000", "192232.775000", "192234.775000", "192236.775000", "192238.775000", "192240.774000", "192242.775000", "192244.775000", "192246.775000", "192248.774000", "192250.774000", "192252.774000", "192254.775000", "192256.775000", "192258.775000", "192300.775000", "192302.775000", "192304.775000", "192306.775000", "192308.775000", "192310.774000", "192312.775000", "192314.775000", "192316.775000", "192318.775000", "192320.775000", "192322.775000", "192324.776000", "192326.775000", "192328.775000", "192330.775000", "192332.775000", "192334.775000", "192336.775000", "192338.775000", "192340.776000", "192342.776000", "192344.775000", "192346.773000", "192348.774000", "192350.775000", "192352.775000", "192354.776000", "192356.775000", "192358.776000", "192400.775000", "192402.775000", "192404.775000", "192406.775000", "192408.775000", "192410.775000", "192412.775000", "192414.775000", "192416.775000", "192418.775000", "192420.774000", "192422.775000", "192424.775000", "192426.775000", "192428.775000", "192430.775000", "192432.774000", "192434.775000", "192436.775000", "192438.775000", "192440.775000", "192442.775000", "192444.775000", "192446.775000", "192448.775000", "192450.775000", "192452.775000", "192454.775000", "192457.275000", "192458.777000", "192500.778000", "192502.776000", "192504.775000", "192506.775000", "192508.775000", "192510.775000", "192512.775000", "192514.775000", "192516.775000", "192518.775000", "192520.775000", "192522.775000", "192524.775000", "192526.775000", "192528.775000", "192530.775000", "192532.775000", "192534.775000", "192536.775000", "192538.776000", "192540.775000", "192542.775000", "192544.775000", "192546.775000", "192548.775000", "192550.776000", "192552.775000", "192554.775000", "192556.774000", "192558.775000", "192600.775000", "192602.775000", "192604.775000", "192606.775000", "192608.775000", "192610.774000", "192612.775000", "192614.775000", "192616.775000", "192618.776000", "192620.775000", "192622.775000", "192624.775000", "192626.776000", "192628.776000", "192630.775000", "192632.776000", "192634.775000", "192636.775000", "192638.774000", "192640.774000", "192642.775000", "192644.775000", "192646.775000", "192648.775000", "192650.775000", "192652.776000", "192654.775000", "192656.775000", "192658.775000", "192700.774000", "192702.775000", "192704.776000", "192706.775000", "192708.775000", "192710.774000", "192712.777000", "192714.776000", "192716.775000", "192718.774000", "192720.775000", "192722.773000", "192724.775000", "192726.775000", "192728.775000", "192730.775000", "192732.776000", "192734.775000", "192736.775000", "192738.775000", "192740.775000", "192742.775000", "192744.774000", "192746.775000", "192748.774000", "192750.773000", "192752.775000", "192754.775000", "192756.775000", "192759.282000", "192800.775000", "192802.775000", "192804.775000", "192806.775000", "192808.775000", "192810.775000", "192812.775000", "192814.775000", "192816.775000", "192818.775000", "192820.775000", "192822.775000", "192824.775000", "192826.775000", "192828.775000", "192830.775000", "192832.775000", "192834.775000", "192836.776000", "192838.775000", "192840.776000", "192842.775000", "192844.775000", "192846.775000", "192848.775000", "192850.775000", "192852.775000", "192854.775000", "192856.776000", "192858.775000", "192900.775000", "192902.776000", "192904.776000", "192906.775000", "192908.773000", "192910.775000", "192912.775000", "192914.775000", "192916.775000", "192918.775000", "192920.645000"],
      "InstanceCreationTime": ["192219.282000", "192220.274000", "192221.277000", "192221.281000", "192222.274000", "192223.273000", "192223.277000", "192224.274000", "192225.274000", "192226.274000", "192227.274000", "192228.774000", "192230.775000", "192232.775000", "192234.775000", "192236.775000", "192238.775000", "192240.774000", "192242.775000", "192244.775000", "192246.775000", "192248.774000", "192250.774000", "192252.774000", "192254.775000", "192256.775000", "192258.775000", "192300.775000", "192302.775000", "192304.775000", "192306.775000", "192308.775000", "192310.774000", "192312.775000", "192314.775000", "192316.775000", "192318.775000", "192320.775000", "192322.775000", "192324.776000", "192326.775000", "192328.775000", "192330.775000", "192332.775000", "192334.775000", "192336.775000", "192338.775000", "192340.776000", "192342.776000", "192344.775000", "192346.773000", "192348.774000", "192350.775000", "192352.775000", "192354.776000", "192356.775000", "192358.776000", "192400.775000", "192402.775000", "192404.775000", "192406.775000", "192408.775000", "192410.775000", "192412.775000", "192414.775000", "192416.775000", "192418.775000", "192420.774000", "192422.775000", "192424.775000", "192426.775000", "192428.775000", "192430.775000", "192432.774000", "192434.775000", "192436.775000", "192438.775000", "192440.775000", "192442.775000", "192444.775000", "192446.775000", "192448.775000", "192450.775000", "192452.775000", "192454.775000", "192457.275000", "192458.777000", "192500.778000", "192502.776000", "192504.775000", "192506.775000", "192508.775000", "192510.775000", "192512.775000", "192514.775000", "192516.775000", "192518.775000", "192520.775000", "192522.775000", "192524.775000", "192526.775000", "192528.775000", "192530.775000", "192532.775000", "192534.775000", "192536.775000", "192538.776000", "192540.775000", "192542.775000", "192544.775000", "192546.775000", "192548.775000", "192550.776000", "192552.775000", "192554.775000", "192556.774000", "192558.775000", "192600.775000", "192602.775000", "192604.775000", "192606.775000", "192608.775000", "192610.774000", "192612.775000", "192614.775000", "192616.775000", "192618.776000", "192620.775000", "192622.775000", "192624.775000", "192626.776000", "192628.776000", "192630.775000", "192632.776000", "192634.775000", "192636.775000", "192638.774000", "192640.774000", "192642.775000", "192644.775000", "192646.775000", "192648.775000", "192650.775000", "192652.776000", "192654.775000", "192656.775000", "192658.775000", "192700.774000", "192702.775000", "192704.776000", "192706.775000", "192708.775000", "192710.774000", "192712.777000", "192714.776000", "192716.775000", "192718.774000", "192720.775000", "192722.773000", "192724.775000", "192726.775000", "192728.775000", "192730.775000", "192732.776000", "192734.775000", "192736.775000", "192738.775000", "192740.775000", "192742.775000", "192744.774000", "192746.775000", "192748.774000", "192750.773000", "192752.775000", "192754.775000", "192756.775000", "192759.282000", "192800.775000", "192802.775000", "192804.775000", "192806.775000", "192808.775000", "192810.775000", "192812.775000", "192814.775000", "192816.775000", "192818.775000", "192820.775000", "192822.775000", "192824.775000", "192826.775000", "192828.775000", "192830.775000", "192832.775000", "192834.775000", "192836.776000", "192838.775000", "192840.776000", "192842.775000", "192844.775000", "192846.775000", "192848.775000", "192850.775000", "192852.775000", "192854.775000", "192856.776000", "192858.775000", "192900.775000", "192902.776000", "192904.776000", "192906.775000", "192908.773000", "192910.775000", "192912.775000", "192914.775000", "192916.775000", "192918.775000", "192920.645000"],
      "InstanceNumber": [1, 2, 3, 4, 5, 6, 7, 8, 9, 10, 11, 12, 13, 14, 15, 16, 17, 18, 19, 20, 21, 22, 23, 24, 25, 26, 27, 28, 29, 30, 31, 32, 33, 34, 35, 36, 37, 38, 39, 40, 41, 42, 43, 44, 45, 46, 47, 48, 49, 50, 51, 52, 53, 54, 55, 56, 57, 58, 59, 60, 61, 62, 63, 64, 65, 66, 67, 68, 69, 70, 71, 72, 73, 74, 75, 76, 77, 78, 79, 80, 81, 82, 83, 84, 85, 86, 87, 88, 89, 90, 91, 92, 93, 94, 95, 96, 97, 98, 99, 100, 101, 102, 103, 104, 105, 106, 107, 108, 109, 110, 111, 112, 113, 114, 115, 116, 117, 118, 119, 120, 121, 122, 123, 124, 125, 126, 127, 128, 129, 130, 131, 132, 133, 134, 135, 136, 137, 138, 139, 140, 141, 142, 143, 144, 145, 146, 147, 148, 149, 150, 151, 152, 153, 154, 155, 156, 157, 158, 159, 160, 161, 162, 163, 164, 165, 166, 167, 168, 169, 170, 171, 172, 173, 174, 175, 176, 177, 178, 179, 180, 181, 182, 183, 184, 185, 186, 187, 188, 189, 190, 191, 192, 193, 194, 195, 196, 197, 198, 199, 200, 201, 202, 203, 204, 205, 206, 207, 208, 209, 210, 211, 212, 213, 214, 215, 216, 217, 218],
      "WindowCenter": [18791.0, 18741.0, 18728.0, 18737.0, 18744.0, 18739.0, 18730.0, 18721.0, 18730.0, 18728.0, 18741.0, 18729.0, 18714.0, 18712.0, 18709.0, 18703.0, 18698.0, 18709.0, 18734.0, 18712.0, 18705.0, 18706.0, 18722.0, 18723.0, 18722.0, 18733.0, 18734.0, 18749.0, 18711.0, 18708.0, 18685.0, 18700.0, 18685.0, 18689.0, 18691.0, 18703.0, 18700.0, 18704.0, 18714.0, 18711.0, 18736.0, 18734.0, 18733.0, 18721.0, 18724.0, 18708.0, 18701.0, 18680.0, 18703.0, 18703.0, 18705.0, 18698.0, 18679.0, 18693.0, 18694.0, 18681.0, 18686.0, 18692.0, 18720.0, 18661.0, 18664.0, 18694.0, 18696.0, 18698.0, 18690.0, 18674.0, 18675.0, 18685.0, 18706.0, 18718.0, 18724.0, 18729.0, 18735.0, 18701.0, 18712.0, 18702.0, 18714.0, 18701.0, 18694.0, 18684.0, 18713.0, 18712.0, 18719.0, 18701.0, 18711.0, 18746.0, 18734.0, 18703.0, 18692.0, 18676.0, 18671.0, 18703.0, 18728.0, 18716.0, 18707.0, 18709.0, 18698.0, 18697.0, 18715.0, 18734.0, 18746.0, 18722.0, 18707.0, 18645.0, 18701.0, 18707.0, 18709.0, 18728.0, 18750.0, 18742.0, 18752.0, 18732.0, 18739.0, 18742.0, 18734.0, 18747.0, 18755.0, 18732.0, 18737.0, 18764.0, 18759.0, 18769.0, 18747.0, 18730.0, 18711.0, 18706.0, 18778.0, 18773.0, 18782.0, 18757.0, 18743.0, 18760.0, 18752.0, 18742.0, 18738.0, 18737.0, 18751.0, 18764.0, 18753.0, 18720.0, 18736.0, 18552.0, 18724.0, 18732.0, 18708.0, 18733.0, 18732.0, 18739.0, 18715.0, 18645.0, 18729.0, 18734.0, 18747.0, 18757.0, 18785.0, 18758.0, 18778.0, 18755.0, 18748.0, 18744.0, 18744.0, 18725.0, 18711.0, 18710.0, 18730.0, 18749.0, 18765.0, 18728.0, 18718.0, 18706.0, 18713.0, 18699.0, 18697.0, 18691.0, 18652.0, 18656.0, 18738.0, 18683.0, 18665.0, 18652.0, 18647.0, 18647.0, 18634.0, 18646.0, 18656.0, 18668.0, 18679.0, 18697.0, 18719.0, 18709.0, 18698.0, 18692.0, 18700.0, 18717.0, 18745.0, 18760.0, 18717.0, 18709.0, 18701.0, 18694.0, 18696.0, 18715.0, 18647.0, 18645.0, 18657.0, 18683.0, 18693.0, 18689.0, 18699.0, 18711.0, 18712.0, 18698.0, 18693.0, 18708.0, 18706.0, 18703.0, 18599.0, 18502.0],
      "WindowWidth": [46644.0, 46517.0, 46496.0, 46551.0, 46589.0, 46551.0, 46506.0, 46501.0, 46521.0, 46494.0, 46482.0, 46436.0, 46448.0, 46470.0, 46445.0, 46429.0, 46426.0, 46446.0, 46501.0, 46485.0, 46465.0, 46490.0, 46526.0, 46513.0, 46515.0, 46524.0, 46560.0, 46510.0, 46456.0, 46442.0, 46390.0, 46412.0, 46413.0, 46390.0, 46404.0, 46438.0, 46436.0, 46416.0, 46438.0, 46461.0, 46504.0, 46523.0, 46510.0, 46463.0, 46469.0, 46443.0, 46364.0, 46371.0, 46401.0, 46388.0, 46426.0, 46398.0, 46383.0, 46393.0, 46393.0, 46396.0, 46341.0, 46384.0, 46440.0, 46318.0, 46346.0, 46419.0, 46384.0, 46410.0, 46367.0, 46355.0, 46344.0, 46389.0, 46441.0, 46449.0, 46442.0, 46481.0, 46484.0, 46433.0, 46432.0, 46450.0, 46472.0, 46413.0, 46347.0, 46375.0, 46446.0, 46444.0, 46449.0, 46398.0, 46470.0, 46495.0, 46485.0, 46447.0, 46405.0, 46332.0, 46316.0, 46367.0, 46445.0, 46448.0, 46417.0, 46408.0, 46388.0, 46386.0, 46424.0, 46473.0, 46505.0, 46415.0, 46354.0, 46238.0, 46417.0, 46409.0, 46413.0, 46475.0, 46517.0, 46524.0, 46532.0, 46491.0, 46474.0, 46488.0, 46492.0, 46529.0, 46466.0, 46444.0, 46474.0, 46459.0, 46527.0, 46547.0, 46526.0, 46480.0, 46431.0, 46302.0, 46509.0, 46531.0, 46499.0, 46469.0, 46460.0, 46461.0, 46419.0, 46423.0, 46396.0, 46394.0, 46431.0, 46428.0, 46457.0, 46371.0, 46394.0, 45964.0, 46551.0, 46425.0, 46378.0, 46451.0, 46435.0, 46488.0, 46386.0, 46210.0, 46408.0, 46415.0, 46412.0, 46457.0, 46537.0, 46517.0, 46510.0, 46455.0, 46424.0, 46424.0, 46412.0, 46396.0, 46385.0, 46396.0, 46459.0, 46523.0, 46545.0, 46445.0, 46388.0, 46393.0, 46397.0, 46387.0, 46327.0, 46311.0, 46271.0, 46282.0, 46557.0, 46358.0, 46265.0, 46164.0, 46159.0, 46159.0, 46124.0, 46171.0, 46201.0, 46245.0, 46300.0, 46327.0, 46380.0, 46408.0, 46386.0, 46358.0, 46341.0, 46389.0, 46495.0, 46505.0, 46460.0, 46383.0, 46330.0, 46347.0, 46362.0, 46412.0, 46284.0, 46339.0, 46323.0, 46394.0, 46402.0, 46376.0, 46411.0, 46445.0, 46432.0, 46398.0, 46392.0, 46440.0, 46485.0, 46412.0, 45979.0, 45545.0]
    },
    "slices": {}
  }
}