{
  "AcquisitionMatrixPE": 116,
  "AcquisitionNumber": 1,
  "AcquisitionTime": "19:15:58.060000",
  "BandwidthPerPixelPhaseEncode": 18.539,
  "BaseResolution": 116,
  "BodyPartExamined": "HEAD",
  "ConsistencyInfo": "N4_VD13D_LATEST_20130810",
  "ConversionSoftware": "dcm2niix",
  "ConversionSoftwareVersion": "v1.0.20190410  (JP2:OpenJPEG) (JP-LS:CharLS) GCC5.5.0",
  "DerivedVendorReportedEchoSpacing": 0.000930006,
  "DeviceSerialNumber": "66014",
  "DwellTime": 3e-06,
  "EchoTime": 0.03,
  "EchoTrainLength": 50,
  "EffectiveEchoSpacing": 0.000465003,
  "FlipAngle": 81,
  "ImageComments": "Unaliased_MB3_PE4",
  "ImageOrientationPatientDICOM": [0.999049, -0.0410862, 0.0145846, 0.0418726, 0.99741, -0.0584866],
  "ImageType": [
    "ORIGINAL",
    "PRIMARY",
    "M",
    "MB",
    "ND",
    "MOSAIC"
],
  "ImagingFrequency": 123.261,
  "InPlanePhaseEncodingDirectionDICOM": "COL",
  "InstitutionAddress": "Yiheyuan_Road_5_Beijing_Haidian_CN_100871",
  "InstitutionName": "Peking_University",
  "InstitutionalDepartmentName": "Department",
  "MRAcquisitionType": "2D",
  "MagneticFieldStrength": 3,
  "Manufacturer": "Siemens",
  "ManufacturersModelName": "Prisma",
  "Modality": "MR",
  "MultibandAccelerationFactor": 3,
  "ParallelReductionFactorInPlane": 2,
  "PartialFourier": 0.875,
  "PatientPosition": "HFS",
  "PercentPhaseFOV": 100,
  "PhaseEncodingDirection": "j-",
  "PhaseEncodingSteps": 101,
  "PhaseResolution": 1,
  "PixelBandwidth": 1435,
  "ProcedureStepDescription": "Research_Projects_64CH",
  "ProtocolName": "mbep2d_bold_MB3_loca3",
  "PulseSequenceDetails": "%CustomerSeq%_cmrr_mbep2d_bold",
  "ReceiveCoilActiveElements": "HC1-6",
  "ReceiveCoilName": "HeadNeck_64",
  "ReconMatrixPE": 116,
  "RefLinesPE": 44,
  "RepetitionTime": 2,
  "SAR": 0.048438,
  "ScanOptions": "PFP_FS",
  "ScanningSequence": "EP",
  "SequenceName": "epfid2d1_116",
  "SequenceVariant": "SK_SS",
  "SeriesDescription": "mbep2d_bold_MB3_loca3",
  "SeriesNumber": 11,
  "ShimSetting": [-3462, -2098, -1954, 354, -66, -41, 24, 15],
  "SliceThickness": 1.9,
  "SliceTiming": [0, 0.9075, 1.815, 0.7425, 1.65, 0.5775, 1.485, 0.4125, 1.32, 0.2475, 1.155, 0.0825, 0.99, 1.8975, 0.825, 1.7325, 0.66, 1.5675, 0.495, 1.4025, 0.33, 1.2375, 0.165, 1.0725, 0, 0.9075, 1.815, 0.7425, 1.65, 0.5775, 1.485, 0.4125, 1.32, 0.2475, 1.155, 0.0825, 0.99, 1.8975, 0.825, 1.7325, 0.66, 1.5675, 0.495, 1.4025, 0.33, 1.2375, 0.165, 1.0725, 0, 0.9075, 1.815, 0.7425, 1.65, 0.5775, 1.485, 0.4125, 1.32, 0.2475, 1.155, 0.0825, 0.99, 1.8975, 0.825, 1.7325, 0.66, 1.5675, 0.495, 1.4025, 0.33, 1.2375, 0.165, 1.0725],
  "SoftwareVersions": "syngo_MR_D13D",
  "SpacingBetweenSlices": 1.9,
  "StationName": "AWP66014",
  "TaskName": "localizer",
  "TotalReadoutTime": 0.0534753,
  "TxRefAmp": 218.15,
  "WipMemBlock": "1078a031-2d7f-4bbb-8d69-d9febf230ce8||Sequence: vd13d/master r/0735857; Nov 19 2014 09:21:40 by eja",
  "dcmmeta_affine": [
    [-1.8947484493255615, 0.07941356301307678, 0.023073256015777588, 104.6612319946289],
    [0.07792213559150696, 1.891638994216919, -0.11217924952507019, -99.04337310791016],
    [0.027660435065627098, 0.1109229102730751, 1.8965450525283813, -68.83907318115234],
    [0.0, 0.0, 0.0, 1.0]
],
  "dcmmeta_reorient_transform": [
    [0.0, -1.0, 0.0, 115.0],
    [1.0, 0.0, 0.0, 0.0],
    [0.0, 0.0, 1.0, 0.0],
    [0.0, 0.0, 0.0, 1.0]
],
  "dcmmeta_shape": [116, 116, 72, 164],
  "dcmmeta_slice_dim": 2,
  "dcmmeta_version": 0.6,
  "global": {
    "const": {
      "AcquisitionMatrix": [116, 0, 0, 116],
      "AngioFlag": "N",
      "BitsAllocated": 16,
      "BitsStored": 16,
      "BodyPartExamined": "HEAD",
      "Columns": 1044,
      "EchoNumbers": 1,
      "EchoTime": 30.0,
      "EchoTrainLength": 50,
      "FlipAngle": 81.0,
      "HighBit": 15,
      "ImageOrientationPatient": [0.9990491542256, -0.0410862153375, 0.01458459291005, 0.0418726054805, 0.9974096447035, -0.0584866272126],
      "ImagePositionPatient": [-1029.8049393979, -960.05973096843, -17.449148727028],
      "ImageType": [
        "ORIGINAL",
        "PRIMARY",
        "M",
        "MB",
        "ND",
        "MOSAIC"
],
      "ImagedNucleus": "1H",
      "ImagingFrequency": 123.260605,
      "InPlanePhaseEncodingDirection": "COL",
      "LargestImagePixelValue": 65535,
      "MRAcquisitionType": "2D",
      "MagneticFieldStrength": 3.0,
      "Manufacturer": "SIEMENS",
      "ManufacturerModelName": "Prisma",
      "Modality": "MR",
      "NumberOfAverages": 1.0,
      "NumberOfPhaseEncodingSteps": 101,
      "PercentPhaseFieldOfView": 100.0,
      "PercentSampling": 100.0,
      "PerformedProcedureStepStartTime": "181933.349000",
      "PhotometricInterpretation": "MONOCHROME2",
      "PixelBandwidth": 1435.0,
      "PixelRepresentation": 0,
      "PixelSpacing": [1.8965517282486, 1.8965517282486],
      "ProtocolName": "mbep2d_bold_MB3_loca3",
      "RepetitionTime": 2000.0,
      "Rows": 1044,
      "SAR": 0.04843796974648,
      "SamplesPerPixel": 1,
      "ScanOptions": [
        "PFP",
        "FS"
],
      "ScanningSequence": "EP",
      "SequenceName": "epfid2d1_116",
      "SequenceVariant": [
        "SK",
        "SS"
],
      "SeriesDescription": "mbep2d_bold_MB3_loca3",
      "SeriesNumber": 11,
      "SeriesTime": "191613.306000",
      "SliceLocation": -61.595223330878,
      "SliceThickness": 1.8999999761581,
      "SmallestImagePixelValue": 0,
      "SoftwareVersions": "syngo MR D13D",
      "SpacingBetweenSlices": 1.8999999548544,
      "SpecificCharacterSet": "ISO_IR 100",
      "StudyID": "1",
      "StudyTime": "181933.274000",
      "TimeOfLastCalibration": ["123723.000000", "123723.000000"],
      "TransmitCoilName": "Body",
      "VariableFlipAngleFlag": "N",
      "WindowCenterWidthExplanation": "Algo1",
      "dBdt": 0.0},
    "slices": {}
  },
  "time": {
    "samples": {
      "AcquisitionNumber": [1, 2, 3, 4, 5, 6, 7, 8, 9, 10, 11, 12, 13, 14, 15, 16, 17, 18, 19, 20, 21, 22, 23, 24, 25, 26, 27, 28, 29, 30, 31, 32, 33, 34, 35, 36, 37, 38, 39, 40, 41, 42, 43, 44, 45, 46, 47, 48, 49, 50, 51, 52, 53, 54, 55, 56, 57, 58, 59, 60, 61, 62, 63, 64, 65, 66, 67, 68, 69, 70, 71, 72, 73, 74, 75, 76, 77, 78, 79, 80, 81, 82, 83, 84, 85, 86, 87, 88, 89, 90, 91, 92, 93, 94, 95, 96, 97, 98, 99, 100, 101, 102, 103, 104, 105, 106, 107, 108, 109, 110, 111, 112, 113, 114, 115, 116, 117, 118, 119, 120, 121, 122, 123, 124, 125, 126, 127, 128, 129, 130, 131, 132, 133, 134, 135, 136, 137, 138, 139, 140, 141, 142, 143, 144, 145, 146, 147, 148, 149, 150, 151, 152, 153, 154, 155, 156, 157, 158, 159, 160, 161, 162, 163, 164],
      "AcquisitionTime": ["191558.060000", "191600.060000", "191602.060000", "191604.060000", "191606.060000", "191608.060000", "191610.060000", "191612.060000", "191614.060000", "191616.060000", "191618.060000", "191620.060000", "191622.060000", "191624.060000", "191626.060000", "191628.060000", "191630.060000", "191632.060000", "191634.060000", "191636.060000", "191638.060000", "191640.060000", "191642.060000", "191644.060000", "191646.060000", "191648.060000", "191650.060000", "191652.060000", "191654.060000", "191656.060000", "191658.060000", "191700.060000", "191702.060000", "191704.060000", "191706.060000", "191708.060000", "191710.060000", "191712.060000", "191714.060000", "191716.060000", "191718.060000", "191720.060000", "191722.060000", "191724.060000", "191726.060000", "191728.060000", "191730.060000", "191732.060000", "191734.060000", "191736.060000", "191738.060000", "191740.060000", "191742.060000", "191744.060000", "191746.060000", "191748.060000", "191750.060000", "191752.060000", "191754.060000", "191756.060000", "191758.060000", "191800.060000", "191802.060000", "191804.060000", "191806.060000", "191808.060000", "191810.060000", "191812.060000", "191814.060000", "191816.060000", "191818.060000", "191820.060000", "191822.060000", "191824.060000", "191826.060000", "191828.060000", "191830.060000", "191832.060000", "191834.060000", "191836.060000", "191838.060000", "191840.060000", "191842.060000", "191844.060000", "191846.060000", "191848.060000", "191850.060000", "191852.060000", "191854.060000", "191856.060000", "191858.060000", "191900.060000", "191902.060000", "191904.060000", "191906.060000", "191908.060000", "191910.060000", "191912.060000", "191914.060000", "191916.060000", "191918.060000", "191920.060000", "191922.060000", "191924.060000", "191926.060000", "191928.060000", "191930.060000", "191932.060000", "191934.060000", "191936.060000", "191938.060000", "191940.060000", "191942.060000", "191944.060000", "191946.060000", "191948.060000", "191950.060000", "191952.060000", "191954.060000", "191956.060000", "191958.060000", "192000.060000", "192002.060000", "192004.060000", "192006.060000", "192008.060000", "192010.060000", "192012.060000", "192014.060000", "192016.060000", "192018.060000", "192020.060000", "192022.060000", "192024.060000", "192026.060000", "192028.060000", "192030.060000", "192032.060000", "192034.060000", "192036.060000", "192038.060000", "192040.060000", "192042.060000", "192044.060000", "192046.060000", "192048.060000", "192050.060000", "192052.060000", "192054.060000", "192056.060000", "192058.060000", "192100.060000", "192102.060000", "192104.060000", "192106.060000", "192108.060000", "192110.060000", "192112.060000", "192114.060000", "192116.060000", "192118.060000", "192120.060000", "192122.060000", "192124.060000"],
      "ContentTime": ["191613.312000", "191614.304000", "191614.308000", "191615.305000", "191616.305000", "191616.312000", "191617.305000", "191618.305000", "191620.305000", "191622.305000", "191624.306000", "191626.306000", "191628.306000", "191630.305000", "191632.305000", "191634.305000", "191636.306000", "191638.305000", "191640.306000", "191642.307000", "191644.306000", "191646.305000", "191648.305000", "191650.305000", "191652.304000", "191654.306000", "191656.305000", "191658.306000", "191700.306000", "191702.306000", "191704.305000", "191706.305000", "191708.305000", "191710.305000", "191712.305000", "191714.305000", "191716.306000", "191718.306000", "191720.306000", "191722.305000", "191724.305000", "191726.305000", "191728.305000", "191730.305000", "191732.305000", "191734.306000", "191736.306000", "191738.306000", "191740.305000", "191742.305000", "191744.305000", "191746.305000", "191748.305000", "191750.305000", "191752.306000", "191754.306000", "191756.305000", "191758.304000", "191800.306000", "191802.305000", "191804.305000", "191806.305000", "191808.306000", "191810.306000", "191812.306000", "191814.306000", "191816.306000", "191818.305000", "191820.305000", "191822.305000", "191824.305000", "191826.306000", "191828.306000", "191830.304000", "191832.305000", "191834.305000", "191836.305000", "191838.305000", "191840.305000", "191842.305000", "191844.306000", "191846.306000", "191848.306000", "191850.305000", "191852.305000", "191854.305000", "191856.305000", "191858.306000", "191900.314000", "191902.306000", "191904.307000", "191906.305000", "191908.305000", "191910.305000", "191912.305000", "191914.305000", "191916.305000", "191918.306000", "191920.306000", "191922.306000", "191924.305000", "191926.305000", "191928.305000", "191930.305000", "191932.305000", "191934.305000", "191936.306000", "191938.306000", "191940.306000", "191942.305000", "191944.306000", "191946.305000", "191948.303000", "191950.304000", "191952.305000", "191954.306000", "191956.306000", "191958.306000", "192000.305000", "192002.305000", "192004.305000", "192006.305000", "192008.306000", "192010.307000", "192012.306000", "192014.306000", "192016.305000", "192018.305000", "192020.305000", "192022.305000", "192024.305000", "192026.305000", "192028.306000", "192030.306000", "192032.306000", "192034.305000", "192036.305000", "192038.306000", "192040.305000", "192042.305000", "192044.305000", "192046.307000", "192048.307000", "192050.306000", "192052.305000", "192054.305000", "192056.304000", "192058.306000", "192100.306000", "192102.305000", "192104.306000", "192106.307000", "192108.306000", "192110.305000", "192112.305000", "192114.305000", "192116.305000", "192118.305000", "192120.306000", "192122.306000", "192124.306000", "192126.305000", "192128.305000", "192130.212000"],
      "InstanceCreationTime": ["191613.312000", "191614.304000", "191614.308000", "191615.305000", "191616.305000", "191616.312000", "191617.305000", "191618.305000", "191620.305000", "191622.305000", "191624.306000", "191626.306000", "191628.306000", "191630.305000", "191632.305000", "191634.305000", "191636.306000", "191638.305000", "191640.306000", "191642.307000", "191644.306000", "191646.305000", "191648.305000", "191650.305000", "191652.304000", "191654.306000", "191656.305000", "191658.306000", "191700.306000", "191702.306000", "191704.305000", "191706.305000", "191708.305000", "191710.305000", "191712.305000", "191714.305000", "191716.306000", "191718.306000", "191720.306000", "191722.305000", "191724.305000", "191726.305000", "191728.305000", "191730.305000", "191732.305000", "191734.306000", "191736.306000", "191738.306000", "191740.305000", "191742.305000", "191744.305000", "191746.305000", "191748.305000", "191750.305000", "191752.306000", "191754.306000", "191756.305000", "191758.304000", "191800.306000", "191802.305000", "191804.305000", "191806.305000", "191808.306000", "191810.306000", "191812.306000", "191814.306000", "191816.306000", "191818.305000", "191820.305000", "191822.305000", "191824.305000", "191826.306000", "191828.306000", "191830.304000", "191832.305000", "191834.305000", "191836.305000", "191838.305000", "191840.305000", "191842.305000", "191844.306000", "191846.306000", "191848.306000", "191850.305000", "191852.305000", "191854.305000", "191856.305000", "191858.306000", "191900.314000", "191902.306000", "191904.307000", "191906.305000", "191908.305000", "191910.305000", "191912.305000", "191914.305000", "191916.305000", "191918.306000", "191920.306000", "191922.306000", "191924.305000", "191926.305000", "191928.305000", "191930.305000", "191932.305000", "191934.305000", "191936.306000", "191938.306000", "191940.306000", "191942.305000", "191944.306000", "191946.305000", "191948.303000", "191950.304000", "191952.305000", "191954.306000", "191956.306000", "191958.306000", "192000.305000", "192002.305000", "192004.305000", "192006.305000", "192008.306000", "192010.307000", "192012.306000", "192014.306000", "192016.305000", "192018.305000", "192020.305000", "192022.305000", "192024.305000", "192026.305000", "192028.306000", "192030.306000", "192032.306000", "192034.305000", "192036.305000", "192038.306000", "192040.305000", "192042.305000", "192044.305000", "192046.307000", "192048.307000", "192050.306000", "192052.305000", "192054.305000", "192056.304000", "192058.306000", "192100.306000", "192102.305000", "192104.306000", "192106.307000", "192108.306000", "192110.305000", "192112.305000", "192114.305000", "192116.305000", "192118.305000", "192120.306000", "192122.306000", "192124.306000", "192126.305000", "192128.305000", "192130.212000"],
      "InstanceNumber": [1, 2, 3, 4, 5, 6, 7, 8, 9, 10, 11, 12, 13, 14, 15, 16, 17, 18, 19, 20, 21, 22, 23, 24, 25, 26, 27, 28, 29, 30, 31, 32, 33, 34, 35, 36, 37, 38, 39, 40, 41, 42, 43, 44, 45, 46, 47, 48, 49, 50, 51, 52, 53, 54, 55, 56, 57, 58, 59, 60, 61, 62, 63, 64, 65, 66, 67, 68, 69, 70, 71, 72, 73, 74, 75, 76, 77, 78, 79, 80, 81, 82, 83, 84, 85, 86, 87, 88, 89, 90, 91, 92, 93, 94, 95, 96, 97, 98, 99, 100, 101, 102, 103, 104, 105, 106, 107, 108, 109, 110, 111, 112, 113, 114, 115, 116, 117, 118, 119, 120, 121, 122, 123, 124, 125, 126, 127, 128, 129, 130, 131, 132, 133, 134, 135, 136, 137, 138, 139, 140, 141, 142, 143, 144, 145, 146, 147, 148, 149, 150, 151, 152, 153, 154, 155, 156, 157, 158, 159, 160, 161, 162, 163, 164],
      "WindowCenter": [16710.0, 16718.0, 16712.0, 16696.0, 16683.0, 16693.0, 16684.0, 16687.0, 16670.0, 16696.0, 16674.0, 16685.0, 16680.0, 16668.0, 16677.0, 16696.0, 16685.0, 16685.0, 16674.0, 16666.0, 16655.0, 16648.0, 16672.0, 16673.0, 16670.0, 16684.0, 16692.0, 16681.0, 16672.0, 16678.0, 16675.0, 16682.0, 16690.0, 16684.0, 16689.0, 16689.0, 16689.0, 16686.0, 16697.0, 16691.0, 16668.0, 16672.0, 16677.0, 16673.0, 16672.0, 16671.0, 16680.0, 16683.0, 16683.0, 16692.0, 16694.0, 16709.0, 16697.0, 16693.0, 16687.0, 16700.0, 16681.0, 16679.0, 16679.0, 16681.0, 16690.0, 16690.0, 16688.0, 16676.0, 16695.0, 16694.0, 16687.0, 16689.0, 16688.0, 16689.0, 16695.0, 16685.0, 16691.0, 16706.0, 16691.0, 16692.0, 16683.0, 16688.0, 16698.0, 16689.0, 16698.0, 16675.0, 16674.0, 16678.0, 16665.0, 16676.0, 16681.0, 16697.0, 16700.0, 16696.0, 16683.0, 16680.0, 16672.0, 16672.0, 16664.0, 16669.0, 16678.0, 16658.0, 16679.0, 16672.0, 16670.0, 16666.0, 16662.0, 16657.0, 16682.0, 16678.0, 16690.0, 16675.0, 16676.0, 16683.0, 16676.0, 16676.0, 16673.0, 16679.0, 16677.0, 16673.0, 16681.0, 16682.0, 16673.0, 16689.0, 16680.0, 16700.0, 16689.0, 16696.0, 16693.0, 16691.0, 16677.0, 16667.0, 16673.0, 16664.0, 16666.0, 16666.0, 16668.0, 16676.0, 16677.0, 16669.0, 16662.0, 16667.0, 16662.0, 16662.0, 16688.0, 16711.0, 16714.0, 16712.0, 16711.0, 16699.0, 16718.0, 16699.0, 16701.0, 16679.0, 16695.0, 16692.0, 16700.0, 16703.0, 16714.0, 16715.0, 16710.0, 16711.0, 16706.0, 16711.0, 16700.0, 16700.0, 16706.0, 16693.0],
      "WindowWidth": [46190.0, 46220.0, 46174.0, 46121.0, 46095.0, 46093.0, 46070.0, 46032.0, 46032.0, 46066.0, 46073.0, 46031.0, 45987.0, 45966.0, 45962.0, 45965.0, 45969.0, 45928.0, 45893.0, 45875.0, 45880.0, 45900.0, 45907.0, 45934.0, 45972.0, 45982.0, 45976.0, 45940.0, 45933.0, 45978.0, 45988.0, 46008.0, 46014.0, 46036.0, 46001.0, 46001.0, 46002.0, 45998.0, 46021.0, 46016.0, 45998.0, 45974.0, 45965.0, 45961.0, 45975.0, 45985.0, 45994.0, 46009.0, 45995.0, 46016.0, 46019.0, 46058.0, 46074.0, 46028.0, 45984.0, 45944.0, 45957.0, 45953.0, 45925.0, 45955.0, 46015.0, 46015.0, 45986.0, 45989.0, 46031.0, 46057.0, 46025.0, 46038.0, 46000.0, 45961.0, 45940.0, 45958.0, 45978.0, 45976.0, 46005.0, 45977.0, 45971.0, 46000.0, 45995.0, 46027.0, 46006.0, 45975.0, 45962.0, 45938.0, 45968.0, 46004.0, 45980.0, 45968.0, 46010.0, 46020.0, 45984.0, 45968.0, 45961.0, 45934.0, 45887.0, 45891.0, 45899.0, 45910.0, 45912.0, 45906.0, 45878.0, 45849.0, 45886.0, 45923.0, 45944.0, 45940.0, 45922.0, 45923.0, 45938.0, 45918.0, 45951.0, 45990.0, 46014.0, 46007.0, 46005.0, 46001.0, 46021.0, 45994.0, 45989.0, 45974.0, 45993.0, 45982.0, 45960.0, 45941.0, 45992.0, 45990.0, 45951.0, 45929.0, 45895.0, 45913.0, 45927.0, 45941.0, 45942.0, 45936.0, 45938.0, 45945.0, 45964.0, 45928.0, 45899.0, 45927.0, 46026.0, 46070.0, 46032.0, 46003.0, 46042.0, 46073.0, 46073.0, 46057.0, 46057.0, 45994.0, 45993.0, 45987.0, 45995.0, 46037.0, 46162.0, 46123.0, 46039.0, 46014.0, 46037.0, 46054.0, 46019.0, 45981.0, 45999.0, 46005.0]
    },
    "slices": {}
  }
}