{
  "AcquisitionMatrixPE": 116,
  "AcquisitionNumber": 1,
  "AcquisitionTime": "19:03:22.572500",
  "BandwidthPerPixelPhaseEncode": 18.539,
  "BaseResolution": 116,
  "BodyPartExamined": "HEAD",
  "ConsistencyInfo": "N4_VD13D_LATEST_20130810",
  "ConversionSoftware": "dcm2niix",
  "ConversionSoftwareVersion": "v1.0.20190410  (JP2:OpenJPEG) (JP-LS:CharLS) GCC5.5.0",
  "DerivedVendorReportedEchoSpacing": 0.000930006,
  "DeviceSerialNumber": "66014",
  "DwellTime": 3e-06,
  "EchoTime": 0.03,
  "EchoTrainLength": 50,
  "EffectiveEchoSpacing": 0.000465003,
  "FlipAngle": 81,
  "ImageComments": "Unaliased_MB3_PE4",
  "ImageOrientationPatientDICOM": [0.999049, -0.0410862, 0.0145846, 0.0418726, 0.99741, -0.0584866],
  "ImageType": [
    "ORIGINAL",
    "PRIMARY",
    "M",
    "MB",
    "ND",
    "MOSAIC"
],
  "ImagingFrequency": 123.261,
  "InPlanePhaseEncodingDirectionDICOM": "COL",
  "InstitutionAddress": "Yiheyuan_Road_5_Beijing_Haidian_CN_100871",
  "InstitutionName": "Peking_University",
  "InstitutionalDepartmentName": "Department",
  "MRAcquisitionType": "2D",
  "MagneticFieldStrength": 3,
  "Manufacturer": "Siemens",
  "ManufacturersModelName": "Prisma",
  "Modality": "MR",
  "MultibandAccelerationFactor": 3,
  "ParallelReductionFactorInPlane": 2,
  "PartialFourier": 0.875,
  "PatientPosition": "HFS",
  "PercentPhaseFOV": 100,
  "PhaseEncodingDirection": "j-",
  "PhaseEncodingSteps": 101,
  "PhaseResolution": 1,
  "PixelBandwidth": 1435,
  "ProcedureStepDescription": "Research_Projects_64CH",
  "ProtocolName": "mbep2d_bold_MB3_loca1",
  "PulseSequenceDetails": "%CustomerSeq%_cmrr_mbep2d_bold",
  "ReceiveCoilActiveElements": "HC1-6",
  "ReceiveCoilName": "HeadNeck_64",
  "ReconMatrixPE": 116,
  "RefLinesPE": 44,
  "RepetitionTime": 2,
  "SAR": 0.048438,
  "ScanOptions": "PFP_FS",
  "ScanningSequence": "EP",
  "SequenceName": "epfid2d1_116",
  "SequenceVariant": "SK_SS",
  "SeriesDescription": "mbep2d_bold_MB3_loca1",
  "SeriesNumber": 9,
  "ShimSetting": [-3462, -2098, -1954, 354, -66, -41, 24, 15],
  "SliceThickness": 1.9,
  "SliceTiming": [0, 0.9075, 1.815, 0.7425, 1.65, 0.5775, 1.485, 0.4125, 1.32, 0.2475, 1.155, 0.0825, 0.99, 1.8975, 0.825, 1.7325, 0.66, 1.5675, 0.495, 1.4025, 0.33, 1.2375, 0.165, 1.0725, 0, 0.9075, 1.815, 0.7425, 1.65, 0.5775, 1.485, 0.4125, 1.32, 0.2475, 1.155, 0.0825, 0.99, 1.8975, 0.825, 1.7325, 0.66, 1.5675, 0.495, 1.4025, 0.33, 1.2375, 0.165, 1.0725, 0, 0.9075, 1.815, 0.7425, 1.65, 0.5775, 1.485, 0.4125, 1.32, 0.2475, 1.155, 0.0825, 0.99, 1.8975, 0.825, 1.7325, 0.66, 1.5675, 0.495, 1.4025, 0.33, 1.2375, 0.165, 1.0725],
  "SoftwareVersions": "syngo_MR_D13D",
  "SpacingBetweenSlices": 1.9,
  "StationName": "AWP66014",
  "TaskName": "localizer",
  "TotalReadoutTime": 0.0534753,
  "TxRefAmp": 218.15,
  "WipMemBlock": "ef71635e-5136-4ec2-8543-40279067c41f||Sequence: vd13d/master r/0735857; Nov 19 2014 09:21:40 by eja",
  "dcmmeta_affine": [
    [-1.8947484493255615, 0.07941356301307678, 0.023073256015777588, 104.6612319946289],
    [0.07792213559150696, 1.891638994216919, -0.11217924952507019, -99.04337310791016],
    [0.027660435065627098, 0.1109229102730751, 1.8965450525283813, -68.83907318115234],
    [0.0, 0.0, 0.0, 1.0]
],
  "dcmmeta_reorient_transform": [
    [0.0, -1.0, 0.0, 115.0],
    [1.0, 0.0, 0.0, 0.0],
    [0.0, 0.0, 1.0, 0.0],
    [0.0, 0.0, 0.0, 1.0]
],
  "dcmmeta_shape": [116, 116, 72, 164],
  "dcmmeta_slice_dim": 2,
  "dcmmeta_version": 0.6,
  "global": {
    "const": {
      "AcquisitionMatrix": [116, 0, 0, 116],
      "AngioFlag": "N",
      "BitsAllocated": 16,
      "BitsStored": 16,
      "BodyPartExamined": "HEAD",
      "Columns": 1044,
      "EchoNumbers": 1,
      "EchoTime": 30.0,
      "EchoTrainLength": 50,
      "FlipAngle": 81.0,
      "HighBit": 15,
      "ImageOrientationPatient": [0.9990491542256, -0.0410862153375, 0.01458459291005, 0.0418726054805, 0.9974096447035, -0.0584866272126],
      "ImagePositionPatient": [-1029.8049393979, -960.05973096843, -17.449148727028],
      "ImageType": [
        "ORIGINAL",
        "PRIMARY",
        "M",
        "MB",
        "ND",
        "MOSAIC"
],
      "ImagedNucleus": "1H",
      "ImagingFrequency": 123.260605,
      "InPlanePhaseEncodingDirection": "COL",
      "LargestImagePixelValue": 65535,
      "MRAcquisitionType": "2D",
      "MagneticFieldStrength": 3.0,
      "Manufacturer": "SIEMENS",
      "ManufacturerModelName": "Prisma",
      "Modality": "MR",
      "NumberOfAverages": 1.0,
      "NumberOfPhaseEncodingSteps": 101,
      "PercentPhaseFieldOfView": 100.0,
      "PercentSampling": 100.0,
      "PerformedProcedureStepStartTime": "181933.349000",
      "PhotometricInterpretation": "MONOCHROME2",
      "PixelBandwidth": 1435.0,
      "PixelRepresentation": 0,
      "PixelSpacing": [1.8965517282486, 1.8965517282486],
      "ProtocolName": "mbep2d_bold_MB3_loca1",
      "RepetitionTime": 2000.0,
      "Rows": 1044,
      "SAR": 0.04843796974648,
      "SamplesPerPixel": 1,
      "ScanOptions": [
        "PFP",
        "FS"
],
      "ScanningSequence": "EP",
      "SequenceName": "epfid2d1_116",
      "SequenceVariant": [
        "SK",
        "SS"
],
      "SeriesDescription": "mbep2d_bold_MB3_loca1",
      "SeriesNumber": 9,
      "SeriesTime": "190337.543000",
      "SliceLocation": -61.595223330878,
      "SliceThickness": 1.8999999761581,
      "SmallestImagePixelValue": 0,
      "SoftwareVersions": "syngo MR D13D",
      "SpacingBetweenSlices": 1.8999999548544,
      "SpecificCharacterSet": "ISO_IR 100",
      "StudyID": "1",
      "StudyTime": "181933.274000",
      "TimeOfLastCalibration": ["123723.000000", "123723.000000"],
      "TransmitCoilName": "Body",
      "VariableFlipAngleFlag": "N",
      "WindowCenterWidthExplanation": "Algo1",
      "dBdt": 0.0},
    "slices": {}
  },
  "time": {
    "samples": {
      "AcquisitionNumber": [1, 2, 3, 4, 5, 6, 7, 8, 9, 10, 11, 12, 13, 14, 15, 16, 17, 18, 19, 20, 21, 22, 23, 24, 25, 26, 27, 28, 29, 30, 31, 32, 33, 34, 35, 36, 37, 38, 39, 40, 41, 42, 43, 44, 45, 46, 47, 48, 49, 50, 51, 52, 53, 54, 55, 56, 57, 58, 59, 60, 61, 62, 63, 64, 65, 66, 67, 68, 69, 70, 71, 72, 73, 74, 75, 76, 77, 78, 79, 80, 81, 82, 83, 84, 85, 86, 87, 88, 89, 90, 91, 92, 93, 94, 95, 96, 97, 98, 99, 100, 101, 102, 103, 104, 105, 106, 107, 108, 109, 110, 111, 112, 113, 114, 115, 116, 117, 118, 119, 120, 121, 122, 123, 124, 125, 126, 127, 128, 129, 130, 131, 132, 133, 134, 135, 136, 137, 138, 139, 140, 141, 142, 143, 144, 145, 146, 147, 148, 149, 150, 151, 152, 153, 154, 155, 156, 157, 158, 159, 160, 161, 162, 163, 164],
      "AcquisitionTime": ["190322.572500", "190324.572500", "190326.572500", "190328.572500", "190330.572500", "190332.572500", "190334.572500", "190336.572500", "190338.572500", "190340.572500", "190342.572500", "190344.572500", "190346.572500", "190348.572500", "190350.572500", "190352.572500", "190354.572500", "190356.572500", "190358.572500", "190400.572500", "190402.572500", "190404.572500", "190406.572500", "190408.572500", "190410.572500", "190412.572500", "190414.572500", "190416.572500", "190418.572500", "190420.572500", "190422.572500", "190424.572500", "190426.572500", "190428.572500", "190430.572500", "190432.572500", "190434.572500", "190436.572500", "190438.572500", "190440.572500", "190442.572500", "190444.572500", "190446.572500", "190448.572500", "190450.572500", "190452.572500", "190454.572500", "190456.572500", "190458.572500", "190500.572500", "190502.572500", "190504.572500", "190506.572500", "190508.572500", "190510.572500", "190512.572500", "190514.572500", "190516.572500", "190518.572500", "190520.572500", "190522.572500", "190524.572500", "190526.572500", "190528.572500", "190530.572500", "190532.572500", "190534.572500", "190536.572500", "190538.572500", "190540.572500", "190542.572500", "190544.572500", "190546.572500", "190548.572500", "190550.572500", "190552.572500", "190554.572500", "190556.572500", "190558.572500", "190600.572500", "190602.572500", "190604.572500", "190606.572500", "190608.572500", "190610.572500", "190612.572500", "190614.572500", "190616.572500", "190618.572500", "190620.572500", "190622.572500", "190624.572500", "190626.572500", "190628.572500", "190630.572500", "190632.572500", "190634.572500", "190636.572500", "190638.572500", "190640.572500", "190642.572500", "190644.572500", "190646.572500", "190648.572500", "190650.572500", "190652.572500", "190654.572500", "190656.572500", "190658.572500", "190700.572500", "190702.572500", "190704.572500", "190706.572500", "190708.572500", "190710.572500", "190712.572500", "190714.572500", "190716.572500", "190718.572500", "190720.572500", "190722.572500", "190724.572500", "190726.572500", "190728.572500", "190730.572500", "190732.572500", "190734.572500", "190736.572500", "190738.572500", "190740.572500", "190742.572500", "190744.572500", "190746.572500", "190748.572500", "190750.572500", "190752.572500", "190754.572500", "190756.572500", "190758.572500", "190800.572500", "190802.572500", "190804.572500", "190806.572500", "190808.572500", "190810.572500", "190812.572500", "190814.572500", "190816.572500", "190818.572500", "190820.572500", "190822.572500", "190824.572500", "190826.572500", "190828.572500", "190830.572500", "190832.572500", "190834.572500", "190836.572500", "190838.572500", "190840.572500", "190842.572500", "190844.572500", "190846.572500", "190848.572500"],
      "ContentTime": ["190337.548000", "190338.541000", "190338.546000", "190339.542000", "190339.546000", "190340.541000", "190341.540000", "190342.541000", "190344.541000", "190346.541000", "190348.541000", "190350.541000", "190352.542000", "190354.542000", "190356.542000", "190358.541000", "190400.541000", "190402.541000", "190404.541000", "190406.541000", "190408.542000", "190410.541000", "190412.543000", "190414.542000", "190416.541000", "190418.540000", "190420.541000", "190422.541000", "190424.541000", "190426.542000", "190428.542000", "190430.542000", "190432.542000", "190434.541000", "190436.541000", "190438.541000", "190440.541000", "190442.541000", "190444.542000", "190446.542000", "190448.542000", "190450.541000", "190452.541000", "190454.541000", "190456.541000", "190458.541000", "190500.541000", "190502.542000", "190504.542000", "190506.543000", "190508.541000", "190510.541000", "190512.541000", "190514.541000", "190516.541000", "190518.543000", "190520.542000", "190522.543000", "190524.542000", "190526.541000", "190528.541000", "190530.541000", "190532.541000", "190534.541000", "190536.542000", "190538.542000", "190540.543000", "190542.544000", "190544.542000", "190546.543000", "190548.541000", "190550.541000", "190552.541000", "190554.541000", "190556.542000", "190558.541000", "190600.541000", "190602.541000", "190604.541000", "190606.541000", "190608.541000", "190610.541000", "190612.542000", "190614.542000", "190616.543000", "190618.541000", "190620.541000", "190622.541000", "190624.541000", "190626.541000", "190628.542000", "190630.542000", "190632.542000", "190634.542000", "190636.541000", "190638.540000", "190640.540000", "190642.540000", "190644.541000", "190646.542000", "190648.542000", "190650.542000", "190652.543000", "190654.542000", "190656.541000", "190658.541000", "190700.541000", "190702.541000", "190704.542000", "190706.543000", "190708.542000", "190710.542000", "190712.541000", "190714.541000", "190716.541000", "190718.541000", "190720.541000", "190722.542000", "190724.542000", "190726.542000", "190728.542000", "190730.541000", "190732.541000", "190734.544000", "190736.541000", "190738.542000", "190740.542000", "190742.542000", "190744.544000", "190746.541000", "190748.541000", "190750.540000", "190752.541000", "190754.541000", "190756.542000", "190758.542000", "190800.542000", "190802.542000", "190804.541000", "190806.541000", "190808.541000", "190810.541000", "190812.541000", "190814.542000", "190816.542000", "190818.542000", "190820.541000", "190822.541000", "190824.541000", "190826.541000", "190828.541000", "190830.541000", "190832.542000", "190834.542000", "190836.542000", "190838.541000", "190840.542000", "190842.541000", "190844.541000", "190846.541000", "190848.542000", "190850.543000", "190852.542000", "190854.461000"],
      "InstanceCreationTime": ["190337.548000", "190338.541000", "190338.546000", "190339.542000", "190339.546000", "190340.541000", "190341.540000", "190342.541000", "190344.541000", "190346.541000", "190348.541000", "190350.541000", "190352.542000", "190354.542000", "190356.542000", "190358.541000", "190400.541000", "190402.541000", "190404.541000", "190406.541000", "190408.542000", "190410.541000", "190412.543000", "190414.542000", "190416.541000", "190418.540000", "190420.541000", "190422.541000", "190424.541000", "190426.542000", "190428.542000", "190430.542000", "190432.542000", "190434.541000", "190436.541000", "190438.541000", "190440.541000", "190442.541000", "190444.542000", "190446.542000", "190448.542000", "190450.541000", "190452.541000", "190454.541000", "190456.541000", "190458.541000", "190500.541000", "190502.542000", "190504.542000", "190506.543000", "190508.541000", "190510.541000", "190512.541000", "190514.541000", "190516.541000", "190518.543000", "190520.542000", "190522.543000", "190524.542000", "190526.541000", "190528.541000", "190530.541000", "190532.541000", "190534.541000", "190536.542000", "190538.542000", "190540.543000", "190542.544000", "190544.542000", "190546.543000", "190548.541000", "190550.541000", "190552.541000", "190554.541000", "190556.542000", "190558.541000", "190600.541000", "190602.541000", "190604.541000", "190606.541000", "190608.541000", "190610.541000", "190612.542000", "190614.542000", "190616.543000", "190618.541000", "190620.541000", "190622.541000", "190624.541000", "190626.541000", "190628.542000", "190630.542000", "190632.542000", "190634.542000", "190636.541000", "190638.540000", "190640.540000", "190642.540000", "190644.541000", "190646.542000", "190648.542000", "190650.542000", "190652.543000", "190654.542000", "190656.541000", "190658.541000", "190700.541000", "190702.541000", "190704.542000", "190706.543000", "190708.542000", "190710.542000", "190712.541000", "190714.541000", "190716.541000", "190718.541000", "190720.541000", "190722.542000", "190724.542000", "190726.542000", "190728.542000", "190730.541000", "190732.541000", "190734.544000", "190736.541000", "190738.542000", "190740.542000", "190742.542000", "190744.544000", "190746.541000", "190748.541000", "190750.540000", "190752.541000", "190754.541000", "190756.542000", "190758.542000", "190800.542000", "190802.542000", "190804.541000", "190806.541000", "190808.541000", "190810.541000", "190812.541000", "190814.542000", "190816.542000", "190818.542000", "190820.541000", "190822.541000", "190824.541000", "190826.541000", "190828.541000", "190830.541000", "190832.542000", "190834.542000", "190836.542000", "190838.541000", "190840.542000", "190842.541000", "190844.541000", "190846.541000", "190848.542000", "190850.543000", "190852.542000", "190854.461000"],
      "InstanceNumber": [1, 2, 3, 4, 5, 6, 7, 8, 9, 10, 11, 12, 13, 14, 15, 16, 17, 18, 19, 20, 21, 22, 23, 24, 25, 26, 27, 28, 29, 30, 31, 32, 33, 34, 35, 36, 37, 38, 39, 40, 41, 42, 43, 44, 45, 46, 47, 48, 49, 50, 51, 52, 53, 54, 55, 56, 57, 58, 59, 60, 61, 62, 63, 64, 65, 66, 67, 68, 69, 70, 71, 72, 73, 74, 75, 76, 77, 78, 79, 80, 81, 82, 83, 84, 85, 86, 87, 88, 89, 90, 91, 92, 93, 94, 95, 96, 97, 98, 99, 100, 101, 102, 103, 104, 105, 106, 107, 108, 109, 110, 111, 112, 113, 114, 115, 116, 117, 118, 119, 120, 121, 122, 123, 124, 125, 126, 127, 128, 129, 130, 131, 132, 133, 134, 135, 136, 137, 138, 139, 140, 141, 142, 143, 144, 145, 146, 147, 148, 149, 150, 151, 152, 153, 154, 155, 156, 157, 158, 159, 160, 161, 162, 163, 164],
      "WindowCenter": [16620.0, 16606.0, 16615.0, 16612.0, 16609.0, 16619.0, 16607.0, 16604.0, 16591.0, 16580.0, 16586.0, 16589.0, 16577.0, 16576.0, 16572.0, 16588.0, 16604.0, 16587.0, 16573.0, 16582.0, 16584.0, 16585.0, 16573.0, 16570.0, 16545.0, 16575.0, 16562.0, 16565.0, 16576.0, 16576.0, 16578.0, 16576.0, 16584.0, 16597.0, 16581.0, 16576.0, 16580.0, 16565.0, 16556.0, 16556.0, 16570.0, 16573.0, 16582.0, 16579.0, 16597.0, 16582.0, 16583.0, 16573.0, 16597.0, 16589.0, 16574.0, 16593.0, 16577.0, 16564.0, 16577.0, 16575.0, 16574.0, 16582.0, 16588.0, 16592.0, 16577.0, 16584.0, 16583.0, 16575.0, 16583.0, 16578.0, 16583.0, 16578.0, 16589.0, 16593.0, 16586.0, 16589.0, 16572.0, 16573.0, 16586.0, 16577.0, 16577.0, 16580.0, 16565.0, 16579.0, 16576.0, 16586.0, 16580.0, 16583.0, 16570.0, 16589.0, 16590.0, 16600.0, 16601.0, 16598.0, 16592.0, 16585.0, 16580.0, 16579.0, 16592.0, 16589.0, 16578.0, 16583.0, 16578.0, 16584.0, 16586.0, 16597.0, 16600.0, 16592.0, 16587.0, 16596.0, 16601.0, 16592.0, 16602.0, 16612.0, 16616.0, 16602.0, 16602.0, 16611.0, 16614.0, 16610.0, 16596.0, 16610.0, 16601.0, 16598.0, 16592.0, 16587.0, 16588.0, 16589.0, 16610.0, 16607.0, 16601.0, 16600.0, 16606.0, 16607.0, 16604.0, 16612.0, 16608.0, 16605.0, 16603.0, 16600.0, 16615.0, 16619.0, 16613.0, 16600.0, 16614.0, 16618.0, 16618.0, 16605.0, 16605.0, 16603.0, 16598.0, 16601.0, 16605.0, 16597.0, 16593.0, 16596.0, 16592.0, 16604.0, 16608.0, 16609.0, 16604.0, 16604.0, 16610.0, 16617.0, 16606.0, 16600.0, 16611.0, 16610.0],
      "WindowWidth": [45767.0, 45729.0, 45801.0, 45878.0, 45927.0, 45908.0, 45897.0, 45842.0, 45819.0, 45796.0, 45815.0, 45777.0, 45780.0, 45792.0, 45843.0, 45858.0, 45804.0, 45750.0, 45739.0, 45773.0, 45788.0, 45800.0, 45804.0, 45749.0, 45754.0, 45710.0, 45741.0, 45757.0, 45753.0, 45738.0, 45742.0, 45753.0, 45747.0, 45746.0, 45758.0, 45727.0, 45718.0, 45677.0, 45670.0, 45684.0, 45734.0, 45764.0, 45745.0, 45783.0, 45770.0, 45773.0, 45759.0, 45777.0, 45797.0, 45789.0, 45792.0, 45768.0, 45729.0, 45704.0, 45703.0, 45701.0, 45781.0, 45813.0, 45831.0, 45819.0, 45780.0, 45813.0, 45826.0, 45845.0, 45811.0, 45796.0, 45786.0, 45795.0, 45790.0, 45808.0, 45762.0, 45726.0, 45723.0, 45726.0, 45735.0, 45741.0, 45741.0, 45742.0, 45797.0, 45796.0, 45833.0, 45828.0, 45822.0, 45825.0, 45815.0, 45790.0, 45818.0, 45828.0, 45816.0, 45787.0, 45781.0, 45776.0, 45797.0, 45824.0, 45832.0, 45829.0, 45820.0, 45797.0, 45808.0, 45840.0, 45828.0, 45837.0, 45854.0, 45846.0, 45829.0, 45811.0, 45777.0, 45795.0, 45830.0, 45865.0, 45882.0, 45868.0, 45867.0, 45903.0, 45905.0, 45900.0, 45890.0, 45875.0, 45854.0, 45838.0, 45821.0, 45815.0, 45831.0, 45859.0, 45823.0, 45794.0, 45775.0, 45763.0, 45794.0, 45807.0, 45802.0, 45823.0, 45860.0, 45898.0, 45867.0, 45853.0, 45866.0, 45870.0, 45865.0, 45854.0, 45812.0, 45844.0, 45884.0, 45873.0, 45817.0, 45816.0, 45852.0, 45854.0, 45846.0, 45811.0, 45782.0, 45810.0, 45806.0, 45831.0, 45835.0, 45848.0, 45845.0, 45845.0, 45836.0, 45857.0, 45861.0, 45856.0, 45811.0, 45798.0]
    },
    "slices": {}
  }
}