{
  "AcquisitionMatrixPE": 116,
  "AcquisitionNumber": 1,
  "AcquisitionTime": "15:14:56.200000",
  "BandwidthPerPixelPhaseEncode": 18.539,
  "BaseResolution": 116,
  "BodyPartExamined": "HEAD",
  "ConsistencyInfo": "N4_VD13D_LATEST_20130810",
  "ConversionSoftware": "dcm2niix",
  "ConversionSoftwareVersion": "v1.0.20190410  (JP2:OpenJPEG) (JP-LS:CharLS) GCC5.5.0",
  "DerivedVendorReportedEchoSpacing": 0.000930006,
  "DeviceSerialNumber": "66014",
  "DwellTime": 3e-06,
  "EchoTime": 0.03,
  "EchoTrainLength": 50,
  "EffectiveEchoSpacing": 0.000465003,
  "FlipAngle": 81,
  "ImageComments": "Unaliased_MB3_PE4",
  "ImageOrientationPatientDICOM": [0.999936, -0.0107259, 0.00347174, 0.0104717, 0.997737, 0.0664111],
  "ImageType": [
    "ORIGINAL",
    "PRIMARY",
    "M",
    "MB",
    "ND",
    "MOSAIC"
],
  "ImagingFrequency": 123.261,
  "InPlanePhaseEncodingDirectionDICOM": "COL",
  "InstitutionAddress": "Yiheyuan_Road_5_Beijing_Haidian_CN_100871",
  "InstitutionName": "Peking_Univeristy",
  "InstitutionalDepartmentName": "Department",
  "MRAcquisitionType": "2D",
  "MagneticFieldStrength": 3,
  "Manufacturer": "Siemens",
  "ManufacturersModelName": "Prisma",
  "Modality": "MR",
  "MultibandAccelerationFactor": 3,
  "ParallelReductionFactorInPlane": 2,
  "PartialFourier": 0.875,
  "PatientPosition": "HFS",
  "PercentPhaseFOV": 100,
  "PhaseEncodingDirection": "j-",
  "PhaseEncodingSteps": 101,
  "PhaseResolution": 1,
  "PixelBandwidth": 1435,
  "ProcedureStepDescription": "Research_Projects_64CH",
  "ProtocolName": "mbep2d_bold_MB3_loca3",
  "PulseSequenceDetails": "%CustomerSeq%_cmrr_mbep2d_bold",
  "ReceiveCoilActiveElements": "HC1-7",
  "ReceiveCoilName": "HeadNeck_64",
  "ReconMatrixPE": 116,
  "RefLinesPE": 44,
  "RepetitionTime": 2,
  "SAR": 0.0562773,
  "ScanOptions": "PFP_FS",
  "ScanningSequence": "EP",
  "SequenceName": "epfid2d1_116",
  "SequenceVariant": "SK_SS",
  "SeriesDescription": "mbep2d_bold_MB3_loca3",
  "SeriesNumber": 11,
  "ShimSetting": [-3450, -2093, -1922, 515, -26, -272, 6, 29],
  "SliceThickness": 1.9,
  "SliceTiming": [0, 0.9075, 1.815, 0.7425, 1.65, 0.5775, 1.485, 0.4125, 1.32, 0.2475, 1.155, 0.0825, 0.99, 1.8975, 0.825, 1.7325, 0.66, 1.5675, 0.495, 1.4025, 0.33, 1.2375, 0.165, 1.0725, 0, 0.9075, 1.815, 0.7425, 1.65, 0.5775, 1.485, 0.4125, 1.32, 0.2475, 1.155, 0.0825, 0.99, 1.8975, 0.825, 1.7325, 0.66, 1.5675, 0.495, 1.4025, 0.33, 1.2375, 0.165, 1.0725, 0, 0.9075, 1.815, 0.7425, 1.65, 0.5775, 1.485, 0.4125, 1.32, 0.2475, 1.155, 0.0825, 0.99, 1.8975, 0.825, 1.7325, 0.66, 1.5675, 0.495, 1.4025, 0.33, 1.2375, 0.165, 1.0725],
  "SoftwareVersions": "syngo_MR_D13D",
  "SpacingBetweenSlices": 1.9,
  "StationName": "AWP66014",
  "TaskName": "localizer",
  "TotalReadoutTime": 0.0534753,
  "TxRefAmp": 217.464,
  "WipMemBlock": "eac9309c-1a69-49fd-b57a-d785084d8f0e||Sequence: vd13d/master r/0735857; Nov 19 2014 09:21:40 by eja",
  "dcmmeta_affine": [
    [-1.8964312076568604, 0.01986015774309635, 0.007934791035950184, 108.36717224121094],
    [0.02034219540655613, 1.8922605514526367, 0.12610407173633575, -100.240478515625],
    [0.006584339775145054, -0.12595215439796448, 1.8957940340042114, -55.47557067871094],
    [0.0, 0.0, 0.0, 1.0]
],
  "dcmmeta_reorient_transform": [
    [0.0, -1.0, 0.0, 115.0],
    [1.0, 0.0, 0.0, 0.0],
    [0.0, 0.0, 1.0, 0.0],
    [0.0, 0.0, 0.0, 1.0]
],
  "dcmmeta_shape": [116, 116, 72, 164],
  "dcmmeta_slice_dim": 2,
  "dcmmeta_version": 0.6,
  "global": {
    "const": {
      "AcquisitionMatrix": [116, 0, 0, 116],
      "AngioFlag": "N",
      "BitsAllocated": 16,
      "BitsStored": 16,
      "BodyPartExamined": "HEAD",
      "Columns": 1044,
      "EchoNumbers": 1,
      "EchoTime": 30.0,
      "EchoTrainLength": 50,
      "FlipAngle": 81.0,
      "HighBit": 15,
      "ImageOrientationPatient": [0.99993644918269, -0.0107258844543, 0.00347174287409, 0.01047171907864, 0.9977373922708, 0.0664111373506],
      "ImagePositionPatient": [-999.81028226545, -985.93961549074, -131.45700460584],
      "ImageType": [
        "ORIGINAL",
        "PRIMARY",
        "M",
        "MB",
        "ND",
        "MOSAIC"
],
      "ImagedNucleus": "1H",
      "ImagingFrequency": 123.260607,
      "InPlanePhaseEncodingDirection": "COL",
      "LargestImagePixelValue": 65535,
      "MRAcquisitionType": "2D",
      "MagneticFieldStrength": 3.0,
      "Manufacturer": "SIEMENS",
      "ManufacturerModelName": "Prisma",
      "Modality": "MR",
      "NumberOfAverages": 1.0,
      "NumberOfPhaseEncodingSteps": 101,
      "PercentPhaseFieldOfView": 100.0,
      "PercentSampling": 100.0,
      "PerformedProcedureStepStartTime": "141605.763000",
      "PhotometricInterpretation": "MONOCHROME2",
      "PixelBandwidth": 1435.0,
      "PixelRepresentation": 0,
      "PixelSpacing": [1.8965517282486, 1.8965517282486],
      "ProtocolName": "mbep2d_bold_MB3_loca3",
      "RepetitionTime": 2000.0,
      "Rows": 1044,
      "SAR": 0.05627728043532,
      "SamplesPerPixel": 1,
      "ScanOptions": [
        "PFP",
        "FS"
],
      "ScanningSequence": "EP",
      "SequenceName": "epfid2d1_116",
      "SequenceVariant": [
        "SK",
        "SS"
],
      "SeriesDescription": "mbep2d_bold_MB3_loca3",
      "SeriesNumber": 11,
      "SeriesTime": "151510.620000",
      "SliceLocation": -61.553219018881,
      "SliceThickness": 1.8999999761581,
      "SmallestImagePixelValue": 0,
      "SoftwareVersions": "syngo MR D13D",
      "SpacingBetweenSlices": 1.9000000436972,
      "SpecificCharacterSet": "ISO_IR 100",
      "StudyID": "1",
      "StudyTime": "141605.717000",
      "TimeOfLastCalibration": ["123723.000000", "123723.000000"],
      "TransmitCoilName": "Body",
      "VariableFlipAngleFlag": "N",
      "WindowCenterWidthExplanation": "Algo1",
      "dBdt": 0.0},
    "slices": {}
  },
  "time": {
    "samples": {
      "AcquisitionNumber": [1, 2, 3, 4, 5, 6, 7, 8, 9, 10, 11, 12, 13, 14, 15, 16, 17, 18, 19, 20, 21, 22, 23, 24, 25, 26, 27, 28, 29, 30, 31, 32, 33, 34, 35, 36, 37, 38, 39, 40, 41, 42, 43, 44, 45, 46, 47, 48, 49, 50, 51, 52, 53, 54, 55, 56, 57, 58, 59, 60, 61, 62, 63, 64, 65, 66, 67, 68, 69, 70, 71, 72, 73, 74, 75, 76, 77, 78, 79, 80, 81, 82, 83, 84, 85, 86, 87, 88, 89, 90, 91, 92, 93, 94, 95, 96, 97, 98, 99, 100, 101, 102, 103, 104, 105, 106, 107, 108, 109, 110, 111, 112, 113, 114, 115, 116, 117, 118, 119, 120, 121, 122, 123, 124, 125, 126, 127, 128, 129, 130, 131, 132, 133, 134, 135, 136, 137, 138, 139, 140, 141, 142, 143, 144, 145, 146, 147, 148, 149, 150, 151, 152, 153, 154, 155, 156, 157, 158, 159, 160, 161, 162, 163, 164],
      "AcquisitionTime": ["151456.200000", "151458.200000", "151500.200000", "151502.200000", "151504.200000", "151506.200000", "151508.200000", "151510.200000", "151512.200000", "151514.200000", "151516.200000", "151518.200000", "151520.200000", "151522.200000", "151524.200000", "151526.200000", "151528.200000", "151530.200000", "151532.200000", "151534.200000", "151536.200000", "151538.200000", "151540.200000", "151542.200000", "151544.200000", "151546.200000", "151548.200000", "151550.200000", "151552.200000", "151554.200000", "151556.200000", "151558.200000", "151600.200000", "151602.200000", "151604.200000", "151606.200000", "151608.200000", "151610.200000", "151612.200000", "151614.200000", "151616.200000", "151618.200000", "151620.200000", "151622.200000", "151624.200000", "151626.200000", "151628.200000", "151630.200000", "151632.200000", "151634.200000", "151636.200000", "151638.200000", "151640.200000", "151642.200000", "151644.200000", "151646.200000", "151648.200000", "151650.200000", "151652.200000", "151654.200000", "151656.200000", "151658.200000", "151700.200000", "151702.200000", "151704.200000", "151706.200000", "151708.200000", "151710.200000", "151712.200000", "151714.200000", "151716.200000", "151718.200000", "151720.200000", "151722.200000", "151724.200000", "151726.200000", "151728.200000", "151730.200000", "151732.200000", "151734.200000", "151736.200000", "151738.200000", "151740.200000", "151742.200000", "151744.200000", "151746.200000", "151748.200000", "151750.200000", "151752.200000", "151754.200000", "151756.200000", "151758.200000", "151800.200000", "151802.200000", "151804.200000", "151806.200000", "151808.200000", "151810.200000", "151812.200000", "151814.200000", "151816.200000", "151818.200000", "151820.200000", "151822.200000", "151824.200000", "151826.200000", "151828.200000", "151830.200000", "151832.200000", "151834.200000", "151836.200000", "151838.200000", "151840.200000", "151842.200000", "151844.200000", "151846.200000", "151848.200000", "151850.200000", "151852.200000", "151854.200000", "151856.200000", "151858.200000", "151900.200000", "151902.200000", "151904.200000", "151906.200000", "151908.200000", "151910.200000", "151912.200000", "151914.200000", "151916.200000", "151918.200000", "151920.200000", "151922.200000", "151924.200000", "151926.200000", "151928.200000", "151930.200000", "151932.200000", "151934.200000", "151936.200000", "151938.200000", "151940.200000", "151942.200000", "151944.200000", "151946.200000", "151948.200000", "151950.200000", "151952.200000", "151954.200000", "151956.200000", "151958.200000", "152000.200000", "152002.200000", "152004.200000", "152006.200000", "152008.200000", "152010.200000", "152012.200000", "152014.200000", "152016.200000", "152018.202500", "152020.202500", "152022.202500"],
      "ContentTime": ["151510.625000", "151511.619000", "151512.619000", "151512.623000", "151514.120000", "151514.124000", "151515.620000", "151515.624000", "151517.119000", "151517.123000", "151519.120000", "151521.120000", "151523.120000", "151525.119000", "151527.119000", "151529.119000", "151531.119000", "151533.120000", "151535.119000", "151537.120000", "151539.119000", "151541.120000", "151543.120000", "151545.120000", "151547.120000", "151549.120000", "151551.118000", "151553.120000", "151555.120000", "151557.119000", "151559.119000", "151601.119000", "151603.120000", "151605.118000", "151607.119000", "151609.120000", "151611.120000", "151613.120000", "151615.120000", "151617.118000", "151619.119000", "151621.120000", "151623.120000", "151625.120000", "151627.120000", "151629.119000", "151631.121000", "151633.120000", "151635.120000", "151637.120000", "151639.119000", "151641.119000", "151643.120000", "151645.120000", "151647.120000", "151649.121000", "151651.121000", "151653.120000", "151655.120000", "151657.120000", "151659.120000", "151701.121000", "151703.120000", "151705.120000", "151707.121000", "151709.120000", "151711.120000", "151713.120000", "151715.120000", "151717.120000", "151719.120000", "151721.120000", "151723.121000", "151725.120000", "151727.120000", "151729.120000", "151731.120000", "151733.120000", "151735.120000", "151737.120000", "151739.120000", "151741.121000", "151743.119000", "151745.119000", "151747.120000", "151749.120000", "151751.120000", "151753.120000", "151755.121000", "151757.121000", "151759.120000", "151801.120000", "151803.120000", "151805.121000", "151807.120000", "151809.120000", "151811.121000", "151813.120000", "151815.122000", "151817.120000", "151819.120000", "151821.119000", "151823.119000", "151825.120000", "151827.120000", "151829.120000", "151831.120000", "151833.121000", "151835.119000", "151837.119000", "151839.129000", "151841.120000", "151843.120000", "151845.120000", "151847.119000", "151849.121000", "151851.121000", "151853.120000", "151855.119000", "151857.120000", "151859.120000", "151901.120000", "151903.120000", "151905.120000", "151907.121000", "151909.120000", "151911.121000", "151913.121000", "151915.120000", "151917.120000", "151919.120000", "151921.120000", "151923.120000", "151925.121000", "151927.120000", "151929.118000", "151931.120000", "151933.121000", "151935.120000", "151937.120000", "151939.120000", "151941.120000", "151943.121000", "151945.120000", "151947.120000", "151949.120000", "151951.121000", "151953.120000", "151955.120000", "151957.120000", "151959.122000", "152001.120000", "152003.120000", "152005.120000", "152007.120000", "152009.120000", "152011.119000", "152013.120000", "152015.120000", "152017.121000", "152019.120000", "152021.120000", "152023.120000", "152024.976000"],
      "InstanceCreationTime": ["151510.625000", "151511.619000", "151512.619000", "151512.623000", "151514.120000", "151514.124000", "151515.620000", "151515.624000", "151517.119000", "151517.123000", "151519.120000", "151521.120000", "151523.120000", "151525.119000", "151527.119000", "151529.119000", "151531.119000", "151533.120000", "151535.119000", "151537.120000", "151539.119000", "151541.120000", "151543.120000", "151545.120000", "151547.120000", "151549.120000", "151551.118000", "151553.120000", "151555.120000", "151557.119000", "151559.119000", "151601.119000", "151603.120000", "151605.118000", "151607.119000", "151609.120000", "151611.120000", "151613.120000", "151615.120000", "151617.118000", "151619.119000", "151621.120000", "151623.120000", "151625.120000", "151627.120000", "151629.119000", "151631.121000", "151633.120000", "151635.120000", "151637.120000", "151639.119000", "151641.119000", "151643.120000", "151645.120000", "151647.120000", "151649.121000", "151651.121000", "151653.120000", "151655.120000", "151657.120000", "151659.120000", "151701.121000", "151703.120000", "151705.120000", "151707.121000", "151709.120000", "151711.120000", "151713.120000", "151715.120000", "151717.120000", "151719.120000", "151721.120000", "151723.121000", "151725.120000", "151727.120000", "151729.120000", "151731.120000", "151733.120000", "151735.120000", "151737.120000", "151739.120000", "151741.121000", "151743.119000", "151745.119000", "151747.120000", "151749.120000", "151751.120000", "151753.120000", "151755.121000", "151757.121000", "151759.120000", "151801.120000", "151803.120000", "151805.121000", "151807.120000", "151809.120000", "151811.121000", "151813.120000", "151815.122000", "151817.120000", "151819.120000", "151821.119000", "151823.119000", "151825.120000", "151827.120000", "151829.120000", "151831.120000", "151833.121000", "151835.119000", "151837.119000", "151839.129000", "151841.120000", "151843.120000", "151845.120000", "151847.119000", "151849.121000", "151851.121000", "151853.120000", "151855.119000", "151857.120000", "151859.120000", "151901.120000", "151903.120000", "151905.120000", "151907.121000", "151909.120000", "151911.121000", "151913.121000", "151915.120000", "151917.120000", "151919.120000", "151921.120000", "151923.120000", "151925.121000", "151927.120000", "151929.118000", "151931.120000", "151933.121000", "151935.120000", "151937.120000", "151939.120000", "151941.120000", "151943.121000", "151945.120000", "151947.120000", "151949.120000", "151951.121000", "151953.120000", "151955.120000", "151957.120000", "151959.122000", "152001.120000", "152003.120000", "152005.120000", "152007.120000", "152009.120000", "152011.119000", "152013.120000", "152015.120000", "152017.121000", "152019.120000", "152021.120000", "152023.120000", "152024.976000"],
      "InstanceNumber": [1, 2, 3, 4, 5, 6, 7, 8, 9, 10, 11, 12, 13, 14, 15, 16, 17, 18, 19, 20, 21, 22, 23, 24, 25, 26, 27, 28, 29, 30, 31, 32, 33, 34, 35, 36, 37, 38, 39, 40, 41, 42, 43, 44, 45, 46, 47, 48, 49, 50, 51, 52, 53, 54, 55, 56, 57, 58, 59, 60, 61, 62, 63, 64, 65, 66, 67, 68, 69, 70, 71, 72, 73, 74, 75, 76, 77, 78, 79, 80, 81, 82, 83, 84, 85, 86, 87, 88, 89, 90, 91, 92, 93, 94, 95, 96, 97, 98, 99, 100, 101, 102, 103, 104, 105, 106, 107, 108, 109, 110, 111, 112, 113, 114, 115, 116, 117, 118, 119, 120, 121, 122, 123, 124, 125, 126, 127, 128, 129, 130, 131, 132, 133, 134, 135, 136, 137, 138, 139, 140, 141, 142, 143, 144, 145, 146, 147, 148, 149, 150, 151, 152, 153, 154, 155, 156, 157, 158, 159, 160, 161, 162, 163, 164],
      "WindowCenter": [17049.0, 17033.0, 17004.0, 17018.0, 17012.0, 17001.0, 17001.0, 16999.0, 16999.0, 17004.0, 17004.0, 17001.0, 16989.0, 17003.0, 17003.0, 16997.0, 16985.0, 16983.0, 16981.0, 16958.0, 16971.0, 16986.0, 16967.0, 16971.0, 16961.0, 16973.0, 16982.0, 17008.0, 16992.0, 16992.0, 16974.0, 16957.0, 16965.0, 16950.0, 16976.0, 16973.0, 16967.0, 16973.0, 16955.0, 16976.0, 16986.0, 16982.0, 16988.0, 16988.0, 16990.0, 17004.0, 17007.0, 17001.0, 16997.0, 17019.0, 16995.0, 16965.0, 16950.0, 16928.0, 16916.0, 16916.0, 16936.0, 16929.0, 16954.0, 16958.0, 16980.0, 16992.0, 16970.0, 16966.0, 16967.0, 16979.0, 16975.0, 16982.0, 16966.0, 16982.0, 17002.0, 16978.0, 16960.0, 16944.0, 16944.0, 16955.0, 16967.0, 16981.0, 16991.0, 16996.0, 16988.0, 16998.0, 16995.0, 17005.0, 16998.0, 17001.0, 17006.0, 16994.0, 16969.0, 16960.0, 16953.0, 16948.0, 16964.0, 16978.0, 16976.0, 16971.0, 16975.0, 16992.0, 16979.0, 16991.0, 16977.0, 17010.0, 17022.0, 17002.0, 16973.0, 16970.0, 16956.0, 16953.0, 16965.0, 16978.0, 16963.0, 16970.0, 16979.0, 16993.0, 16999.0, 17014.0, 17018.0, 17016.0, 16993.0, 16983.0, 16984.0, 16990.0, 16981.0, 16965.0, 16976.0, 16968.0, 16968.0, 16958.0, 16954.0, 16984.0, 16989.0, 16993.0, 17017.0, 16996.0, 16990.0, 16983.0, 16968.0, 16997.0, 17003.0, 17011.0, 17008.0, 17018.0, 17002.0, 16994.0, 17014.0, 16992.0, 16972.0, 16961.0, 16959.0, 16963.0, 16961.0, 16974.0, 16973.0, 16988.0, 16983.0, 17011.0, 16982.0, 16983.0, 17004.0, 17010.0, 16984.0, 16964.0, 16956.0, 16947.0],
      "WindowWidth": [45315.0, 45198.0, 45172.0, 45174.0, 45207.0, 45186.0, 45133.0, 45093.0, 45121.0, 45138.0, 45164.0, 45146.0, 45136.0, 45136.0, 45112.0, 45147.0, 45144.0, 45105.0, 45011.0, 45006.0, 45005.0, 45018.0, 45029.0, 45019.0, 45049.0, 45049.0, 45161.0, 45266.0, 45273.0, 45144.0, 45076.0, 45060.0, 45043.0, 45054.0, 45090.0, 45101.0, 45041.0, 44971.0, 44981.0, 45016.0, 45024.0, 45099.0, 45104.0, 45090.0, 45159.0, 45208.0, 45199.0, 45204.0, 45231.0, 45288.0, 45197.0, 45064.0, 44958.0, 44902.0, 44877.0, 44867.0, 44862.0, 44918.0, 44930.0, 45012.0, 45125.0, 45119.0, 45073.0, 45030.0, 45086.0, 45095.0, 45105.0, 45137.0, 45109.0, 45178.0, 45246.0, 45141.0, 44969.0, 44854.0, 44895.0, 44959.0, 44980.0, 45020.0, 45068.0, 45100.0, 45105.0, 45101.0, 45188.0, 45209.0, 45217.0, 45231.0, 45246.0, 45142.0, 45042.0, 44983.0, 44940.0, 44896.0, 44964.0, 45032.0, 45026.0, 45023.0, 45051.0, 45081.0, 45095.0, 45175.0, 45137.0, 45243.0, 45278.0, 45201.0, 45059.0, 45005.0, 44956.0, 44971.0, 44982.0, 45019.0, 44977.0, 44969.0, 45050.0, 45089.0, 45147.0, 45249.0, 45290.0, 45219.0, 45105.0, 45046.0, 45048.0, 45042.0, 45032.0, 45029.0, 45051.0, 45032.0, 44978.0, 44958.0, 44983.0, 45039.0, 45099.0, 45166.0, 45187.0, 45179.0, 45108.0, 45101.0, 45154.0, 45207.0, 45276.0, 45243.0, 45189.0, 45248.0, 45184.0, 45226.0, 45242.0, 45125.0, 45018.0, 44985.0, 44971.0, 44976.0, 44998.0, 45012.0, 45060.0, 45090.0, 45150.0, 45149.0, 45135.0, 45216.0, 45238.0, 45239.0, 45108.0, 45069.0, 45015.0, 44979.0]
    },
    "slices": {}
  }
}