{
  "AcquisitionMatrixPE": 116,
  "AcquisitionNumber": 1,
  "AcquisitionTime": "15:50:32.772500",
  "BandwidthPerPixelPhaseEncode": 18.539,
  "BaseResolution": 116,
  "BodyPartExamined": "HEAD",
  "ConsistencyInfo": "N4_VD13D_LATEST_20130810",
  "ConversionSoftware": "dcm2niix",
  "ConversionSoftwareVersion": "v1.0.20190410  (JP2:OpenJPEG) (JP-LS:CharLS) GCC5.5.0",
  "DerivedVendorReportedEchoSpacing": 0.000930006,
  "DeviceSerialNumber": "66014",
  "DwellTime": 3e-06,
  "EchoTime": 0.03,
  "EchoTrainLength": 50,
  "EffectiveEchoSpacing": 0.000465003,
  "FlipAngle": 81,
  "ImageComments": "Unaliased_MB3_PE4",
  "ImageOrientationPatientDICOM": [0.994629, 0.0546724, -0.0878872, -0.0590919, 0.997074, -0.0484953],
  "ImageType": [
    "ORIGINAL",
    "PRIMARY",
    "M",
    "MB",
    "ND",
    "MOSAIC"
],
  "ImagingFrequency": 123.261,
  "InPlanePhaseEncodingDirectionDICOM": "COL",
  "InstitutionAddress": "Yiheyuan_Road_5_Beijing_Haidian_CN_100871",
  "InstitutionName": "Peking_University",
  "InstitutionalDepartmentName": "Department",
  "MRAcquisitionType": "2D",
  "MagneticFieldStrength": 3,
  "Manufacturer": "Siemens",
  "ManufacturersModelName": "Prisma",
  "Modality": "MR",
  "MultibandAccelerationFactor": 3,
  "ParallelReductionFactorInPlane": 2,
  "PartialFourier": 0.875,
  "PatientPosition": "HFS",
  "PercentPhaseFOV": 100,
  "PhaseEncodingDirection": "j-",
  "PhaseEncodingSteps": 101,
  "PhaseResolution": 1,
  "PixelBandwidth": 1435,
  "ProcedureStepDescription": "Research_Projects_64CH",
  "ProtocolName": "mbep2d_bold_MB3_learn3",
  "PulseSequenceDetails": "%CustomerSeq%_cmrr_mbep2d_bold",
  "ReceiveCoilActiveElements": "HC1-7",
  "ReceiveCoilName": "HeadNeck_64",
  "ReconMatrixPE": 116,
  "RefLinesPE": 44,
  "RepetitionTime": 2,
  "SAR": 0.0475238,
  "ScanOptions": "PFP_FS",
  "ScanningSequence": "EP",
  "SequenceName": "epfid2d1_116",
  "SequenceVariant": "SK_SS",
  "SeriesDescription": "mbep2d_bold_MB3_learn3",
  "SeriesNumber": 8,
  "ShimSetting": [-3472, -2112, -1950, 328, -76, -161, -14, 30],
  "SliceThickness": 1.9,
  "SliceTiming": [0, 0.9075, 1.815, 0.7425, 1.65, 0.5775, 1.485, 0.4125, 1.32, 0.2475, 1.155, 0.0825, 0.99, 1.8975, 0.825, 1.7325, 0.66, 1.5675, 0.495, 1.4025, 0.33, 1.2375, 0.165, 1.0725, 0, 0.9075, 1.815, 0.7425, 1.65, 0.5775, 1.485, 0.4125, 1.32, 0.2475, 1.155, 0.0825, 0.99, 1.8975, 0.825, 1.7325, 0.66, 1.5675, 0.495, 1.4025, 0.33, 1.2375, 0.165, 1.0725, 0, 0.9075, 1.815, 0.7425, 1.65, 0.5775, 1.485, 0.4125, 1.32, 0.2475, 1.155, 0.0825, 0.99, 1.8975, 0.825, 1.7325, 0.66, 1.5675, 0.495, 1.4025, 0.33, 1.2375, 0.165, 1.0725],
  "SoftwareVersions": "syngo_MR_D13D",
  "SpacingBetweenSlices": 1.9,
  "StationName": "AWP66014",
  "TaskName": "updating",
  "TotalReadoutTime": 0.0534753,
  "TxRefAmp": 214.158,
  "WipMemBlock": "daa80243-2186-4e22-bc7d-32591b0342b5||Sequence: vd13d/master r/0735857; Nov 19 2014 09:21:40 by eja",
  "dcmmeta_affine": [
    [-1.886365294456482, -0.11207089573144913, -0.16145944595336914, 120.96133422851562],
    [-0.1036890521645546, 1.8910021781921387, -0.10151363164186478, -90.0372543334961],
    [-0.16668257117271423, 0.09197379648685455, 1.8904036283493042, -70.83676147460938],
    [0.0, 0.0, 0.0, 1.0]
],
  "dcmmeta_reorient_transform": [
    [0.0, -1.0, 0.0, 115.0],
    [1.0, 0.0, 0.0, 0.0],
    [0.0, 0.0, 1.0, 0.0],
    [0.0, 0.0, 0.0, 1.0]
],
  "dcmmeta_shape": [116, 116, 72, 218],
  "dcmmeta_slice_dim": 2,
  "dcmmeta_version": 0.6,
  "global": {
    "const": {
      "AcquisitionMatrix": [116, 0, 0, 116],
      "AngioFlag": "N",
      "BitsAllocated": 16,
      "BitsStored": 16,
      "BodyPartExamined": "HEAD",
      "Columns": 1044,
      "EchoNumbers": 1,
      "EchoTime": 30.0,
      "EchoTrainLength": 50,
      "FlipAngle": 81.0,
      "HighBit": 15,
      "ImageOrientationPatient": [0.99462896194531, 0.0546724072875, -0.0878871773411, -0.0590919279825, 0.99707389509351, -0.048495275753],
      "ImagePositionPatient": [-931.34577486065, -1052.964751076, 59.756788035526],
      "ImageType": [
        "ORIGINAL",
        "PRIMARY",
        "M",
        "MB",
        "ND",
        "MOSAIC"
],
      "ImagedNucleus": "1H",
      "ImagingFrequency": 123.260618,
      "InPlanePhaseEncodingDirection": "COL",
      "LargestImagePixelValue": 65535,
      "MRAcquisitionType": "2D",
      "MagneticFieldStrength": 3.0,
      "Manufacturer": "SIEMENS",
      "ManufacturerModelName": "Prisma",
      "Modality": "MR",
      "NumberOfAverages": 1.0,
      "NumberOfPhaseEncodingSteps": 101,
      "PercentPhaseFieldOfView": 100.0,
      "PercentSampling": 100.0,
      "PerformedProcedureStepStartTime": "151003.579000",
      "PhotometricInterpretation": "MONOCHROME2",
      "PixelBandwidth": 1435.0,
      "PixelRepresentation": 0,
      "PixelSpacing": [1.8965517282486, 1.8965517282486],
      "ProtocolName": "mbep2d_bold_MB3_learn3",
      "RepetitionTime": 2000.0,
      "Rows": 1044,
      "SAR": 0.04752378372179,
      "SamplesPerPixel": 1,
      "ScanOptions": [
        "PFP",
        "FS"
],
      "ScanningSequence": "EP",
      "SequenceName": "epfid2d1_116",
      "SequenceVariant": [
        "SK",
        "SS"
],
      "SeriesDescription": "mbep2d_bold_MB3_learn3",
      "SeriesNumber": 8,
      "SeriesTime": "155047.653000",
      "SliceLocation": -75.947581592974,
      "SliceThickness": 1.8999999761581,
      "SmallestImagePixelValue": 0,
      "SoftwareVersions": "syngo MR D13D",
      "SpacingBetweenSlices": 1.8999999725544,
      "SpecificCharacterSet": "ISO_IR 100",
      "StudyID": "1",
      "StudyTime": "151003.509000",
      "TimeOfLastCalibration": ["123723.000000", "123723.000000"],
      "TransmitCoilName": "Body",
      "VariableFlipAngleFlag": "N",
      "WindowCenterWidthExplanation": "Algo1",
      "dBdt": 0.0},
    "slices": {}
  },
  "time": {
    "samples": {
      "AcquisitionNumber": [1, 2, 3, 4, 5, 6, 7, 8, 9, 10, 11, 12, 13, 14, 15, 16, 17, 18, 19, 20, 21, 22, 23, 24, 25, 26, 27, 28, 29, 30, 31, 32, 33, 34, 35, 36, 37, 38, 39, 40, 41, 42, 43, 44, 45, 46, 47, 48, 49, 50, 51, 52, 53, 54, 55, 56, 57, 58, 59, 60, 61, 62, 63, 64, 65, 66, 67, 68, 69, 70, 71, 72, 73, 74, 75, 76, 77, 78, 79, 80, 81, 82, 83, 84, 85, 86, 87, 88, 89, 90, 91, 92, 93, 94, 95, 96, 97, 98, 99, 100, 101, 102, 103, 104, 105, 106, 107, 108, 109, 110, 111, 112, 113, 114, 115, 116, 117, 118, 119, 120, 121, 122, 123, 124, 125, 126, 127, 128, 129, 130, 131, 132, 133, 134, 135, 136, 137, 138, 139, 140, 141, 142, 143, 144, 145, 146, 147, 148, 149, 150, 151, 152, 153, 154, 155, 156, 157, 158, 159, 160, 161, 162, 163, 164, 165, 166, 167, 168, 169, 170, 171, 172, 173, 174, 175, 176, 177, 178, 179, 180, 181, 182, 183, 184, 185, 186, 187, 188, 189, 190, 191, 192, 193, 194, 195, 196, 197, 198, 199, 200, 201, 202, 203, 204, 205, 206, 207, 208, 209, 210, 211, 212, 213, 214, 215, 216, 217, 218],
      "AcquisitionTime": ["155032.772500", "155034.772500", "155036.772500", "155038.772500", "155040.772500", "155042.772500", "155044.772500", "155046.772500", "155048.772500", "155050.772500", "155052.772500", "155054.772500", "155056.772500", "155058.772500", "155100.772500", "155102.772500", "155104.772500", "155106.772500", "155108.772500", "155110.772500", "155112.772500", "155114.772500", "155116.772500", "155118.772500", "155120.772500", "155122.772500", "155124.772500", "155126.772500", "155128.772500", "155130.772500", "155132.772500", "155134.772500", "155136.772500", "155138.772500", "155140.772500", "155142.772500", "155144.772500", "155146.772500", "155148.772500", "155150.772500", "155152.772500", "155154.772500", "155156.772500", "155158.772500", "155200.772500", "155202.772500", "155204.772500", "155206.772500", "155208.772500", "155210.772500", "155212.772500", "155214.772500", "155216.772500", "155218.775000", "155220.775000", "155222.775000", "155224.775000", "155226.775000", "155228.775000", "155230.775000", "155232.775000", "155234.775000", "155236.775000", "155238.775000", "155240.775000", "155242.775000", "155244.775000", "155246.775000", "155248.775000", "155250.775000", "155252.775000", "155254.775000", "155256.775000", "155258.775000", "155300.775000", "155302.775000", "155304.775000", "155306.775000", "155308.775000", "155310.775000", "155312.775000", "155314.775000", "155316.775000", "155318.775000", "155320.775000", "155322.775000", "155324.775000", "155326.775000", "155328.775000", "155330.775000", "155332.775000", "155334.775000", "155336.775000", "155338.775000", "155340.775000", "155342.775000", "155344.775000", "155346.775000", "155348.775000", "155350.775000", "155352.775000", "155354.775000", "155356.775000", "155358.775000", "155400.775000", "155402.775000", "155404.775000", "155406.775000", "155408.775000", "155410.775000", "155412.775000", "155414.775000", "155416.775000", "155418.775000", "155420.775000", "155422.775000", "155424.775000", "155426.775000", "155428.775000", "155430.775000", "155432.775000", "155434.775000", "155436.775000", "155438.775000", "155440.775000", "155442.775000", "155444.775000", "155446.775000", "155448.775000", "155450.775000", "155452.775000", "155454.775000", "155456.775000", "155458.775000", "155500.775000", "155502.775000", "155504.775000", "155506.775000", "155508.775000", "155510.775000", "155512.775000", "155514.775000", "155516.775000", "155518.775000", "155520.775000", "155522.775000", "155524.775000", "155526.775000", "155528.775000", "155530.775000", "155532.775000", "155534.775000", "155536.775000", "155538.775000", "155540.775000", "155542.775000", "155544.775000", "155546.775000", "155548.775000", "155550.775000", "155552.775000", "155554.775000", "155556.775000", "155558.775000", "155600.775000", "155602.775000", "155604.775000", "155606.775000", "155608.775000", "155610.775000", "155612.775000", "155614.775000", "155616.775000", "155618.775000", "155620.775000", "155622.775000", "155624.775000", "155626.775000", "155628.775000", "155630.775000", "155632.775000", "155634.775000", "155636.775000", "155638.775000", "155640.775000", "155642.775000", "155644.775000", "155646.775000", "155648.775000", "155650.775000", "155652.775000", "155654.775000", "155656.775000", "155658.775000", "155700.775000", "155702.775000", "155704.775000", "155706.775000", "155708.775000", "155710.775000", "155712.775000", "155714.775000", "155716.775000", "155718.775000", "155720.775000", "155722.775000", "155724.775000", "155726.775000", "155728.775000", "155730.775000", "155732.775000", "155734.775000", "155736.775000", "155738.775000", "155740.775000", "155742.775000", "155744.775000", "155746.775000"],
      "ContentTime": ["155047.658000", "155048.651000", "155049.651000", "155049.656000", "155050.652000", "155051.651000", "155051.655000", "155052.652000", "155053.651000", "155054.651000", "155055.652000", "155057.653000", "155059.653000", "155101.652000", "155103.652000", "155105.652000", "155107.652000", "155109.652000", "155111.652000", "155113.652000", "155115.653000", "155117.653000", "155119.651000", "155121.651000", "155123.651000", "155125.651000", "155127.651000", "155129.651000", "155131.651000", "155133.652000", "155135.651000", "155137.651000", "155139.652000", "155141.651000", "155143.651000", "155145.651000", "155147.651000", "155149.652000", "155151.653000", "155153.652000", "155155.652000", "155157.650000", "155159.651000", "155201.651000", "155203.652000", "155205.652000", "155207.654000", "155209.653000", "155211.652000", "155213.652000", "155215.652000", "155217.652000", "155219.652000", "155221.652000", "155223.652000", "155225.653000", "155227.653000", "155229.652000", "155231.652000", "155233.652000", "155235.652000", "155237.652000", "155239.651000", "155241.653000", "155243.653000", "155245.652000", "155247.652000", "155249.652000", "155251.653000", "155253.652000", "155255.652000", "155257.652000", "155259.653000", "155301.653000", "155303.652000", "155305.652000", "155307.652000", "155309.653000", "155311.652000", "155313.652000", "155315.652000", "155317.653000", "155319.653000", "155321.652000", "155323.652000", "155325.652000", "155327.652000", "155329.652000", "155331.652000", "155333.652000", "155335.653000", "155337.653000", "155339.652000", "155341.652000", "155343.652000", "155345.652000", "155347.652000", "155349.652000", "155351.653000", "155353.653000", "155355.652000", "155357.652000", "155359.652000", "155401.652000", "155403.652000", "155405.652000", "155407.651000", "155409.653000", "155411.653000", "155413.652000", "155415.653000", "155417.652000", "155419.652000", "155421.653000", "155423.652000", "155425.652000", "155427.652000", "155429.653000", "155431.652000", "155433.652000", "155435.652000", "155437.659000", "155439.652000", "155441.651000", "155443.652000", "155445.653000", "155447.653000", "155449.653000", "155451.652000", "155453.652000", "155455.652000", "155457.652000", "155459.652000", "155501.653000", "155503.653000", "155505.652000", "155507.652000", "155509.652000", "155511.652000", "155513.653000", "155515.652000", "155517.652000", "155519.653000", "155521.654000", "155523.652000", "155525.652000", "155527.652000", "155529.652000", "155531.652000", "155533.652000", "155535.652000", "155537.653000", "155539.652000", "155541.652000", "155543.652000", "155545.652000", "155547.652000", "155549.652000", "155551.652000", "155553.652000", "155555.653000", "155557.653000", "155559.652000", "155601.652000", "155603.652000", "155605.652000", "155607.653000", "155609.652000", "155611.652000", "155613.653000", "155615.652000", "155617.652000", "155619.652000", "155621.652000", "155623.652000", "155625.652000", "155627.652000", "155629.651000", "155631.653000", "155633.652000", "155635.652000", "155637.652000", "155639.652000", "155641.652000", "155643.652000", "155645.652000", "155647.653000", "155649.653000", "155651.652000", "155653.652000", "155655.650000", "155657.652000", "155659.653000", "155701.652000", "155703.652000", "155705.653000", "155707.653000", "155709.652000", "155711.652000", "155713.652000", "155715.652000", "155717.652000", "155719.652000", "155721.653000", "155723.653000", "155725.652000", "155727.653000", "155729.652000", "155731.652000", "155733.652000", "155735.652000", "155737.653000", "155739.653000", "155741.653000", "155743.652000", "155745.652000", "155747.652000", "155749.294000"],
      "InstanceCreationTime": ["155047.658000", "155048.651000", "155049.651000", "155049.656000", "155050.652000", "155051.651000", "155051.655000", "155052.652000", "155053.651000", "155054.651000", "155055.652000", "155057.653000", "155059.653000", "155101.652000", "155103.652000", "155105.652000", "155107.652000", "155109.652000", "155111.652000", "155113.652000", "155115.653000", "155117.653000", "155119.651000", "155121.651000", "155123.651000", "155125.651000", "155127.651000", "155129.651000", "155131.651000", "155133.652000", "155135.651000", "155137.651000", "155139.652000", "155141.651000", "155143.651000", "155145.651000", "155147.651000", "155149.652000", "155151.653000", "155153.652000", "155155.652000", "155157.650000", "155159.651000", "155201.651000", "155203.652000", "155205.652000", "155207.654000", "155209.653000", "155211.652000", "155213.652000", "155215.652000", "155217.652000", "155219.652000", "155221.652000", "155223.652000", "155225.653000", "155227.653000", "155229.652000", "155231.652000", "155233.652000", "155235.652000", "155237.652000", "155239.651000", "155241.653000", "155243.653000", "155245.652000", "155247.652000", "155249.652000", "155251.653000", "155253.652000", "155255.652000", "155257.652000", "155259.653000", "155301.653000", "155303.652000", "155305.652000", "155307.652000", "155309.653000", "155311.652000", "155313.652000", "155315.652000", "155317.653000", "155319.653000", "155321.652000", "155323.652000", "155325.652000", "155327.652000", "155329.652000", "155331.652000", "155333.652000", "155335.653000", "155337.653000", "155339.652000", "155341.652000", "155343.652000", "155345.652000", "155347.652000", "155349.652000", "155351.653000", "155353.653000", "155355.652000", "155357.652000", "155359.652000", "155401.652000", "155403.652000", "155405.652000", "155407.651000", "155409.653000", "155411.653000", "155413.652000", "155415.653000", "155417.652000", "155419.652000", "155421.653000", "155423.652000", "155425.652000", "155427.652000", "155429.653000", "155431.652000", "155433.652000", "155435.652000", "155437.659000", "155439.652000", "155441.651000", "155443.652000", "155445.653000", "155447.653000", "155449.653000", "155451.652000", "155453.652000", "155455.652000", "155457.652000", "155459.652000", "155501.653000", "155503.653000", "155505.652000", "155507.652000", "155509.652000", "155511.652000", "155513.653000", "155515.652000", "155517.652000", "155519.653000", "155521.654000", "155523.652000", "155525.652000", "155527.652000", "155529.652000", "155531.652000", "155533.652000", "155535.652000", "155537.653000", "155539.652000", "155541.652000", "155543.652000", "155545.652000", "155547.652000", "155549.652000", "155551.652000", "155553.652000", "155555.653000", "155557.653000", "155559.652000", "155601.652000", "155603.652000", "155605.652000", "155607.653000", "155609.652000", "155611.652000", "155613.653000", "155615.652000", "155617.652000", "155619.652000", "155621.652000", "155623.652000", "155625.652000", "155627.652000", "155629.651000", "155631.653000", "155633.652000", "155635.652000", "155637.652000", "155639.652000", "155641.652000", "155643.652000", "155645.652000", "155647.653000", "155649.653000", "155651.652000", "155653.652000", "155655.650000", "155657.652000", "155659.653000", "155701.652000", "155703.652000", "155705.653000", "155707.653000", "155709.652000", "155711.652000", "155713.652000", "155715.652000", "155717.652000", "155719.652000", "155721.653000", "155723.653000", "155725.652000", "155727.653000", "155729.652000", "155731.652000", "155733.652000", "155735.652000", "155737.653000", "155739.653000", "155741.653000", "155743.652000", "155745.652000", "155747.652000", "155749.294000"],
      "InstanceNumber": [1, 2, 3, 4, 5, 6, 7, 8, 9, 10, 11, 12, 13, 14, 15, 16, 17, 18, 19, 20, 21, 22, 23, 24, 25, 26, 27, 28, 29, 30, 31, 32, 33, 34, 35, 36, 37, 38, 39, 40, 41, 42, 43, 44, 45, 46, 47, 48, 49, 50, 51, 52, 53, 54, 55, 56, 57, 58, 59, 60, 61, 62, 63, 64, 65, 66, 67, 68, 69, 70, 71, 72, 73, 74, 75, 76, 77, 78, 79, 80, 81, 82, 83, 84, 85, 86, 87, 88, 89, 90, 91, 92, 93, 94, 95, 96, 97, 98, 99, 100, 101, 102, 103, 104, 105, 106, 107, 108, 109, 110, 111, 112, 113, 114, 115, 116, 117, 118, 119, 120, 121, 122, 123, 124, 125, 126, 127, 128, 129, 130, 131, 132, 133, 134, 135, 136, 137, 138, 139, 140, 141, 142, 143, 144, 145, 146, 147, 148, 149, 150, 151, 152, 153, 154, 155, 156, 157, 158, 159, 160, 161, 162, 163, 164, 165, 166, 167, 168, 169, 170, 171, 172, 173, 174, 175, 176, 177, 178, 179, 180, 181, 182, 183, 184, 185, 186, 187, 188, 189, 190, 191, 192, 193, 194, 195, 196, 197, 198, 199, 200, 201, 202, 203, 204, 205, 206, 207, 208, 209, 210, 211, 212, 213, 214, 215, 216, 217, 218],
      "WindowCenter": [15527.0, 15540.0, 15548.0, 15545.0, 15511.0, 15519.0, 15512.0, 15499.0, 15514.0, 15544.0, 15540.0, 15525.0, 15517.0, 15506.0, 15535.0, 15509.0, 15510.0, 15530.0, 15525.0, 15512.0, 15503.0, 15519.0, 15530.0, 15523.0, 15534.0, 15533.0, 15518.0, 15503.0, 15514.0, 15543.0, 15545.0, 15532.0, 15527.0, 15514.0, 15515.0, 15530.0, 15530.0, 15541.0, 15540.0, 15541.0, 15525.0, 15536.0, 15523.0, 15526.0, 15522.0, 15526.0, 15534.0, 15518.0, 15529.0, 15520.0, 15526.0, 15516.0, 15532.0, 15540.0, 15524.0, 15539.0, 15530.0, 15521.0, 15528.0, 15525.0, 15536.0, 15525.0, 15517.0, 15523.0, 15527.0, 15531.0, 15541.0, 15521.0, 15531.0, 15532.0, 15514.0, 15530.0, 15552.0, 15547.0, 15533.0, 15532.0, 15538.0, 15532.0, 15531.0, 15531.0, 15524.0, 15534.0, 15552.0, 15549.0, 15534.0, 15526.0, 15531.0, 15531.0, 15521.0, 15526.0, 15534.0, 15528.0, 15533.0, 15535.0, 15521.0, 15534.0, 15537.0, 15538.0, 15540.0, 15530.0, 15510.0, 15524.0, 15533.0, 15518.0, 15528.0, 15525.0, 15527.0, 15528.0, 15535.0, 15532.0, 15529.0, 15523.0, 15520.0, 15526.0, 15530.0, 15544.0, 15540.0, 15535.0, 15535.0, 15549.0, 15545.0, 15532.0, 15528.0, 15530.0, 15536.0, 15524.0, 15534.0, 15533.0, 15545.0, 15549.0, 15551.0, 15535.0, 15551.0, 15540.0, 15530.0, 15522.0, 15537.0, 15553.0, 15556.0, 15541.0, 15539.0, 15542.0, 15536.0, 15543.0, 15541.0, 15536.0, 15534.0, 15537.0, 15546.0, 15536.0, 15544.0, 15549.0, 15533.0, 15545.0, 15550.0, 15557.0, 15553.0, 15555.0, 15554.0, 15554.0, 15551.0, 15555.0, 15550.0, 15530.0, 15543.0, 15541.0, 15555.0, 15524.0, 15541.0, 15548.0, 15557.0, 15554.0, 15555.0, 15556.0, 15547.0, 15531.0, 15547.0, 15541.0, 15529.0, 15540.0, 15550.0, 15552.0, 15556.0, 15581.0, 15569.0, 15555.0, 15528.0, 15549.0, 15544.0, 15548.0, 15549.0, 15551.0, 15536.0, 15553.0, 15555.0, 15551.0, 15548.0, 15554.0, 15546.0, 15539.0, 15556.0, 15544.0, 15542.0, 15554.0, 15560.0, 15553.0, 15554.0, 15548.0, 15560.0, 15591.0, 15551.0, 15535.0, 15545.0, 15541.0, 15539.0, 15532.0, 15528.0, 15550.0],
      "WindowWidth": [45010.0, 45006.0, 44859.0, 44772.0, 44715.0, 44721.0, 44688.0, 44718.0, 44929.0, 44999.0, 44879.0, 44737.0, 44674.0, 44751.0, 44754.0, 44757.0, 44773.0, 44846.0, 44798.0, 44756.0, 44735.0, 44779.0, 44776.0, 44828.0, 44835.0, 44819.0, 44636.0, 44736.0, 44815.0, 44830.0, 44830.0, 44845.0, 44828.0, 44801.0, 44816.0, 44845.0, 44858.0, 44899.0, 44898.0, 44856.0, 44855.0, 44836.0, 44838.0, 44812.0, 44808.0, 44842.0, 44820.0, 44820.0, 44830.0, 44808.0, 44842.0, 44903.0, 44930.0, 44823.0, 44781.0, 44770.0, 44789.0, 44837.0, 44901.0, 44883.0, 44866.0, 44839.0, 44775.0, 44827.0, 44886.0, 44847.0, 44773.0, 44767.0, 44804.0, 44849.0, 44831.0, 44831.0, 44839.0, 44806.0, 44835.0, 44835.0, 44839.0, 44835.0, 44833.0, 44848.0, 44854.0, 44892.0, 44910.0, 44862.0, 44821.0, 44811.0, 44831.0, 44846.0, 44849.0, 44825.0, 44821.0, 44873.0, 44890.0, 44863.0, 44864.0, 44836.0, 44823.0, 44854.0, 44842.0, 44817.0, 44868.0, 44825.0, 44832.0, 44904.0, 44871.0, 44855.0, 44826.0, 44829.0, 44852.0, 44851.0, 44902.0, 44895.0, 44835.0, 44853.0, 44887.0, 44859.0, 44853.0, 44861.0, 44834.0, 44806.0, 44819.0, 44847.0, 44873.0, 44889.0, 44894.0, 44909.0, 44905.0, 44906.0, 44901.0, 44878.0, 44880.0, 44891.0, 44863.0, 44839.0, 44830.0, 44850.0, 44892.0, 44895.0, 44870.0, 44842.0, 44883.0, 44912.0, 44920.0, 44870.0, 44853.0, 44879.0, 44879.0, 44895.0, 44888.0, 44921.0, 44873.0, 44836.0, 44875.0, 44889.0, 44993.0, 44955.0, 44925.0, 44910.0, 44881.0, 44937.0, 44948.0, 44937.0, 44918.0, 44884.0, 44884.0, 44868.0, 44853.0, 44896.0, 44870.0, 44905.0, 44886.0, 44895.0, 44894.0, 44868.0, 44817.0, 44846.0, 44875.0, 44897.0, 44901.0, 44936.0, 44947.0, 44908.0, 44929.0, 44925.0, 44898.0, 44854.0, 44812.0, 44805.0, 44845.0, 44905.0, 44918.0, 44879.0, 44864.0, 44892.0, 44883.0, 44879.0, 44904.0, 44882.0, 44890.0, 44925.0, 44899.0, 44898.0, 44897.0, 44897.0, 44900.0, 44893.0, 44881.0, 44922.0, 44946.0, 44931.0, 44906.0, 44889.0, 44843.0, 44854.0, 44839.0, 44846.0, 44871.0, 44893.0]
    },
    "slices": {}
  }
}