{
  "AcquisitionMatrixPE": 116,
  "AcquisitionNumber": 1,
  "AcquisitionTime": "15:58:54.700000",
  "BandwidthPerPixelPhaseEncode": 18.539,
  "BaseResolution": 116,
  "BodyPartExamined": "HEAD",
  "ConsistencyInfo": "N4_VD13D_LATEST_20130810",
  "ConversionSoftware": "dcm2niix",
  "ConversionSoftwareVersion": "v1.0.20190410  (JP2:OpenJPEG) (JP-LS:CharLS) GCC5.5.0",
  "DerivedVendorReportedEchoSpacing": 0.000930006,
  "DeviceSerialNumber": "66014",
  "DwellTime": 3e-06,
  "EchoTime": 0.03,
  "EchoTrainLength": 50,
  "EffectiveEchoSpacing": 0.000465003,
  "FlipAngle": 81,
  "ImageComments": "Unaliased_MB3_PE4",
  "ImageOrientationPatientDICOM": [0.994629, 0.0546724, -0.0878872, -0.0590919, 0.997074, -0.0484953],
  "ImageType": [
    "ORIGINAL",
    "PRIMARY",
    "M",
    "MB",
    "ND",
    "MOSAIC"
],
  "ImagingFrequency": 123.261,
  "InPlanePhaseEncodingDirectionDICOM": "COL",
  "InstitutionAddress": "Yiheyuan_Road_5_Beijing_Haidian_CN_100871",
  "InstitutionName": "Peking_University",
  "InstitutionalDepartmentName": "Department",
  "MRAcquisitionType": "2D",
  "MagneticFieldStrength": 3,
  "Manufacturer": "Siemens",
  "ManufacturersModelName": "Prisma",
  "Modality": "MR",
  "MultibandAccelerationFactor": 3,
  "ParallelReductionFactorInPlane": 2,
  "PartialFourier": 0.875,
  "PatientPosition": "HFS",
  "PercentPhaseFOV": 100,
  "PhaseEncodingDirection": "j-",
  "PhaseEncodingSteps": 101,
  "PhaseResolution": 1,
  "PixelBandwidth": 1435,
  "ProcedureStepDescription": "Research_Projects_64CH",
  "ProtocolName": "mbep2d_bold_MB3_learn4",
  "PulseSequenceDetails": "%CustomerSeq%_cmrr_mbep2d_bold",
  "ReceiveCoilActiveElements": "HC1-7",
  "ReceiveCoilName": "HeadNeck_64",
  "ReconMatrixPE": 116,
  "RefLinesPE": 44,
  "RepetitionTime": 2,
  "SAR": 0.0475238,
  "ScanOptions": "PFP_FS",
  "ScanningSequence": "EP",
  "SequenceName": "epfid2d1_116",
  "SequenceVariant": "SK_SS",
  "SeriesDescription": "mbep2d_bold_MB3_learn4",
  "SeriesNumber": 9,
  "ShimSetting": [-3472, -2112, -1950, 328, -76, -161, -14, 30],
  "SliceThickness": 1.9,
  "SliceTiming": [0, 0.9075, 1.815, 0.7425, 1.65, 0.5775, 1.485, 0.4125, 1.32, 0.2475, 1.155, 0.0825, 0.99, 1.8975, 0.825, 1.7325, 0.66, 1.5675, 0.495, 1.4025, 0.33, 1.2375, 0.165, 1.0725, 0, 0.9075, 1.815, 0.7425, 1.65, 0.5775, 1.485, 0.4125, 1.32, 0.2475, 1.155, 0.0825, 0.99, 1.8975, 0.825, 1.7325, 0.66, 1.5675, 0.495, 1.4025, 0.33, 1.2375, 0.165, 1.0725, 0, 0.9075, 1.815, 0.7425, 1.65, 0.5775, 1.485, 0.4125, 1.32, 0.2475, 1.155, 0.0825, 0.99, 1.8975, 0.825, 1.7325, 0.66, 1.5675, 0.495, 1.4025, 0.33, 1.2375, 0.165, 1.0725],
  "SoftwareVersions": "syngo_MR_D13D",
  "SpacingBetweenSlices": 1.9,
  "StationName": "AWP66014",
  "TaskName": "updating",
  "TotalReadoutTime": 0.0534753,
  "TxRefAmp": 214.158,
  "WipMemBlock": "6a114ecd-0265-4f80-9907-b7693d06443b||Sequence: vd13d/master r/0735857; Nov 19 2014 09:21:40 by eja",
  "dcmmeta_affine": [
    [-1.886365294456482, -0.11207089573144913, -0.16145944595336914, 120.96133422851562],
    [-0.1036890521645546, 1.8910021781921387, -0.10151363164186478, -90.0372543334961],
    [-0.16668257117271423, 0.09197379648685455, 1.8904036283493042, -70.83676147460938],
    [0.0, 0.0, 0.0, 1.0]
],
  "dcmmeta_reorient_transform": [
    [0.0, -1.0, 0.0, 115.0],
    [1.0, 0.0, 0.0, 0.0],
    [0.0, 0.0, 1.0, 0.0],
    [0.0, 0.0, 0.0, 1.0]
],
  "dcmmeta_shape": [116, 116, 72, 218],
  "dcmmeta_slice_dim": 2,
  "dcmmeta_version": 0.6,
  "global": {
    "const": {
      "AcquisitionMatrix": [116, 0, 0, 116],
      "AngioFlag": "N",
      "BitsAllocated": 16,
      "BitsStored": 16,
      "BodyPartExamined": "HEAD",
      "Columns": 1044,
      "EchoNumbers": 1,
      "EchoTime": 30.0,
      "EchoTrainLength": 50,
      "FlipAngle": 81.0,
      "HighBit": 15,
      "ImageOrientationPatient": [0.99462896194531, 0.0546724072875, -0.0878871773411, -0.0590919279825, 0.99707389509351, -0.048495275753],
      "ImagePositionPatient": [-931.34577486065, -1052.964751076, 59.756788035526],
      "ImageType": [
        "ORIGINAL",
        "PRIMARY",
        "M",
        "MB",
        "ND",
        "MOSAIC"
],
      "ImagedNucleus": "1H",
      "ImagingFrequency": 123.260621,
      "InPlanePhaseEncodingDirection": "COL",
      "LargestImagePixelValue": 65535,
      "MRAcquisitionType": "2D",
      "MagneticFieldStrength": 3.0,
      "Manufacturer": "SIEMENS",
      "ManufacturerModelName": "Prisma",
      "Modality": "MR",
      "NumberOfAverages": 1.0,
      "NumberOfPhaseEncodingSteps": 101,
      "PercentPhaseFieldOfView": 100.0,
      "PercentSampling": 100.0,
      "PerformedProcedureStepStartTime": "151003.579000",
      "PhotometricInterpretation": "MONOCHROME2",
      "PixelBandwidth": 1435.0,
      "PixelRepresentation": 0,
      "PixelSpacing": [1.8965517282486, 1.8965517282486],
      "ProtocolName": "mbep2d_bold_MB3_learn4",
      "RepetitionTime": 2000.0,
      "Rows": 1044,
      "SAR": 0.04752378372179,
      "SamplesPerPixel": 1,
      "ScanOptions": [
        "PFP",
        "FS"
],
      "ScanningSequence": "EP",
      "SequenceName": "epfid2d1_116",
      "SequenceVariant": [
        "SK",
        "SS"
],
      "SeriesDescription": "mbep2d_bold_MB3_learn4",
      "SeriesNumber": 9,
      "SeriesTime": "155910.381000",
      "SliceLocation": -75.947581592974,
      "SliceThickness": 1.8999999761581,
      "SmallestImagePixelValue": 0,
      "SoftwareVersions": "syngo MR D13D",
      "SpacingBetweenSlices": 1.8999999725544,
      "SpecificCharacterSet": "ISO_IR 100",
      "StudyID": "1",
      "StudyTime": "151003.509000",
      "TimeOfLastCalibration": ["123723.000000", "123723.000000"],
      "TransmitCoilName": "Body",
      "VariableFlipAngleFlag": "N",
      "WindowCenterWidthExplanation": "Algo1",
      "dBdt": 0.0},
    "slices": {}
  },
  "time": {
    "samples": {
      "AcquisitionNumber": [1, 2, 3, 4, 5, 6, 7, 8, 9, 10, 11, 12, 13, 14, 15, 16, 17, 18, 19, 20, 21, 22, 23, 24, 25, 26, 27, 28, 29, 30, 31, 32, 33, 34, 35, 36, 37, 38, 39, 40, 41, 42, 43, 44, 45, 46, 47, 48, 49, 50, 51, 52, 53, 54, 55, 56, 57, 58, 59, 60, 61, 62, 63, 64, 65, 66, 67, 68, 69, 70, 71, 72, 73, 74, 75, 76, 77, 78, 79, 80, 81, 82, 83, 84, 85, 86, 87, 88, 89, 90, 91, 92, 93, 94, 95, 96, 97, 98, 99, 100, 101, 102, 103, 104, 105, 106, 107, 108, 109, 110, 111, 112, 113, 114, 115, 116, 117, 118, 119, 120, 121, 122, 123, 124, 125, 126, 127, 128, 129, 130, 131, 132, 133, 134, 135, 136, 137, 138, 139, 140, 141, 142, 143, 144, 145, 146, 147, 148, 149, 150, 151, 152, 153, 154, 155, 156, 157, 158, 159, 160, 161, 162, 163, 164, 165, 166, 167, 168, 169, 170, 171, 172, 173, 174, 175, 176, 177, 178, 179, 180, 181, 182, 183, 184, 185, 186, 187, 188, 189, 190, 191, 192, 193, 194, 195, 196, 197, 198, 199, 200, 201, 202, 203, 204, 205, 206, 207, 208, 209, 210, 211, 212, 213, 214, 215, 216, 217, 218],
      "AcquisitionTime": ["155854.700000", "155856.700000", "155858.700000", "155900.700000", "155902.700000", "155904.700000", "155906.700000", "155908.700000", "155910.700000", "155912.700000", "155914.700000", "155916.700000", "155918.700000", "155920.700000", "155922.700000", "155924.700000", "155926.700000", "155928.700000", "155930.700000", "155932.700000", "155934.700000", "155936.700000", "155938.702500", "155940.702500", "155942.702500", "155944.702500", "155946.702500", "155948.702500", "155950.702500", "155952.702500", "155954.702500", "155956.702500", "155958.702500", "160000.702500", "160002.702500", "160004.702500", "160006.702500", "160008.702500", "160010.702500", "160012.702500", "160014.702500", "160016.702500", "160018.702500", "160020.702500", "160022.702500", "160024.702500", "160026.702500", "160028.702500", "160030.702500", "160032.702500", "160034.702500", "160036.702500", "160038.702500", "160040.702500", "160042.702500", "160044.702500", "160046.702500", "160048.702500", "160050.702500", "160052.702500", "160054.702500", "160056.702500", "160058.702500", "160100.702500", "160102.702500", "160104.702500", "160106.702500", "160108.702500", "160110.702500", "160112.702500", "160114.702500", "160116.702500", "160118.702500", "160120.702500", "160122.702500", "160124.702500", "160126.702500", "160128.702500", "160130.702500", "160132.702500", "160134.702500", "160136.702500", "160138.702500", "160140.702500", "160142.702500", "160144.702500", "160146.702500", "160148.702500", "160150.702500", "160152.702500", "160154.702500", "160156.702500", "160158.702500", "160200.702500", "160202.702500", "160204.702500", "160206.702500", "160208.702500", "160210.702500", "160212.702500", "160214.702500", "160216.702500", "160218.702500", "160220.702500", "160222.702500", "160224.702500", "160226.702500", "160228.702500", "160230.702500", "160232.702500", "160234.702500", "160236.702500", "160238.702500", "160240.702500", "160242.702500", "160244.702500", "160246.702500", "160248.702500", "160250.702500", "160252.702500", "160254.702500", "160256.702500", "160258.702500", "160300.702500", "160302.702500", "160304.702500", "160306.702500", "160308.702500", "160310.702500", "160312.702500", "160314.702500", "160316.702500", "160318.702500", "160320.702500", "160322.702500", "160324.702500", "160326.702500", "160328.702500", "160330.702500", "160332.702500", "160334.702500", "160336.702500", "160338.702500", "160340.702500", "160342.702500", "160344.702500", "160346.702500", "160348.702500", "160350.702500", "160352.702500", "160354.702500", "160356.702500", "160358.702500", "160400.702500", "160402.702500", "160404.702500", "160406.702500", "160408.702500", "160410.702500", "160412.702500", "160414.702500", "160416.702500", "160418.702500", "160420.702500", "160422.702500", "160424.702500", "160426.702500", "160428.702500", "160430.702500", "160432.702500", "160434.702500", "160436.702500", "160438.702500", "160440.702500", "160442.702500", "160444.702500", "160446.702500", "160448.702500", "160450.702500", "160452.702500", "160454.702500", "160456.702500", "160458.702500", "160500.702500", "160502.702500", "160504.702500", "160506.702500", "160508.702500", "160510.702500", "160512.702500", "160514.702500", "160516.702500", "160518.702500", "160520.702500", "160522.702500", "160524.702500", "160526.702500", "160528.702500", "160530.702500", "160532.702500", "160534.702500", "160536.702500", "160538.702500", "160540.702500", "160542.702500", "160544.702500", "160546.702500", "160548.702500", "160550.702500", "160552.702500", "160554.702500", "160556.702500", "160558.702500", "160600.702500", "160602.702500", "160604.702500", "160606.702500", "160608.702500"],
      "ContentTime": ["155910.386000", "155911.379000", "155912.380000", "155912.384000", "155913.378000", "155914.379000", "155914.384000", "155915.379000", "155916.380000", "155917.379000", "155918.380000", "155919.879000", "155921.881000", "155923.880000", "155925.880000", "155927.880000", "155929.881000", "155931.880000", "155933.880000", "155935.880000", "155937.880000", "155939.880000", "155941.880000", "155943.880000", "155945.880000", "155947.880000", "155949.880000", "155951.880000", "155953.880000", "155955.881000", "155957.879000", "155959.880000", "160001.880000", "160003.880000", "160005.881000", "160007.881000", "160009.879000", "160011.880000", "160013.880000", "160015.879000", "160017.880000", "160019.880000", "160021.880000", "160023.880000", "160025.880000", "160027.880000", "160029.880000", "160031.881000", "160033.880000", "160035.880000", "160037.880000", "160039.879000", "160041.880000", "160043.880000", "160045.881000", "160047.880000", "160049.880000", "160051.880000", "160053.881000", "160055.880000", "160057.880000", "160059.880000", "160101.881000", "160103.880000", "160105.881000", "160107.880000", "160109.880000", "160111.880000", "160113.880000", "160115.880000", "160117.880000", "160119.880000", "160121.880000", "160123.880000", "160125.879000", "160127.880000", "160129.880000", "160131.880000", "160133.880000", "160135.880000", "160137.880000", "160139.881000", "160141.880000", "160143.880000", "160145.880000", "160147.880000", "160149.880000", "160151.880000", "160153.880000", "160155.880000", "160157.881000", "160159.880000", "160201.880000", "160203.879000", "160205.880000", "160207.881000", "160209.880000", "160211.880000", "160213.881000", "160215.879000", "160217.879000", "160219.881000", "160221.880000", "160223.880000", "160225.880000", "160227.880000", "160229.880000", "160231.880000", "160233.880000", "160235.879000", "160237.880000", "160239.880000", "160241.880000", "160243.881000", "160245.881000", "160247.880000", "160249.878000", "160251.880000", "160253.880000", "160255.880000", "160257.880000", "160259.880000", "160301.880000", "160303.880000", "160305.880000", "160307.878000", "160309.880000", "160311.880000", "160313.880000", "160315.880000", "160317.880000", "160319.880000", "160321.880000", "160323.880000", "160325.880000", "160327.879000", "160329.880000", "160331.880000", "160333.880000", "160335.881000", "160337.880000", "160339.880000", "160341.880000", "160343.880000", "160345.879000", "160347.880000", "160349.880000", "160351.880000", "160353.880000", "160355.880000", "160357.880000", "160359.880000", "160401.881000", "160403.880000", "160405.880000", "160407.880000", "160409.880000", "160411.880000", "160413.880000", "160415.880000", "160417.880000", "160419.880000", "160421.880000", "160423.880000", "160425.880000", "160427.880000", "160429.881000", "160431.880000", "160433.880000", "160435.880000", "160437.879000", "160439.880000", "160441.880000", "160443.879000", "160445.881000", "160447.880000", "160449.880000", "160451.880000", "160453.880000", "160455.879000", "160457.880000", "160459.880000", "160501.880000", "160503.880000", "160505.880000", "160507.881000", "160509.878000", "160511.880000", "160513.880000", "160515.881000", "160517.880000", "160519.880000", "160521.880000", "160523.880000", "160525.880000", "160527.880000", "160529.880000", "160531.880000", "160533.881000", "160535.880000", "160537.880000", "160539.880000", "160541.880000", "160543.880000", "160545.881000", "160547.879000", "160549.880000", "160551.880000", "160553.880000", "160555.880000", "160557.880000", "160559.880000", "160601.879000", "160603.880000", "160605.880000", "160607.880000", "160609.880000", "160611.429000"],
      "InstanceCreationTime": ["155910.386000", "155911.379000", "155912.380000", "155912.384000", "155913.378000", "155914.379000", "155914.384000", "155915.379000", "155916.380000", "155917.379000", "155918.380000", "155919.879000", "155921.881000", "155923.880000", "155925.880000", "155927.880000", "155929.881000", "155931.880000", "155933.880000", "155935.880000", "155937.880000", "155939.880000", "155941.880000", "155943.880000", "155945.880000", "155947.880000", "155949.880000", "155951.880000", "155953.880000", "155955.881000", "155957.879000", "155959.880000", "160001.880000", "160003.880000", "160005.881000", "160007.881000", "160009.879000", "160011.880000", "160013.880000", "160015.879000", "160017.880000", "160019.880000", "160021.880000", "160023.880000", "160025.880000", "160027.880000", "160029.880000", "160031.881000", "160033.880000", "160035.880000", "160037.880000", "160039.879000", "160041.880000", "160043.880000", "160045.881000", "160047.880000", "160049.880000", "160051.880000", "160053.881000", "160055.880000", "160057.880000", "160059.880000", "160101.881000", "160103.880000", "160105.881000", "160107.880000", "160109.880000", "160111.880000", "160113.880000", "160115.880000", "160117.880000", "160119.880000", "160121.880000", "160123.880000", "160125.879000", "160127.880000", "160129.880000", "160131.880000", "160133.880000", "160135.880000", "160137.880000", "160139.881000", "160141.880000", "160143.880000", "160145.880000", "160147.880000", "160149.880000", "160151.880000", "160153.880000", "160155.880000", "160157.881000", "160159.880000", "160201.880000", "160203.879000", "160205.880000", "160207.881000", "160209.880000", "160211.880000", "160213.881000", "160215.879000", "160217.879000", "160219.881000", "160221.880000", "160223.880000", "160225.880000", "160227.880000", "160229.880000", "160231.880000", "160233.880000", "160235.879000", "160237.880000", "160239.880000", "160241.880000", "160243.881000", "160245.881000", "160247.880000", "160249.878000", "160251.880000", "160253.880000", "160255.880000", "160257.880000", "160259.880000", "160301.880000", "160303.880000", "160305.880000", "160307.878000", "160309.880000", "160311.880000", "160313.880000", "160315.880000", "160317.880000", "160319.880000", "160321.880000", "160323.880000", "160325.880000", "160327.879000", "160329.880000", "160331.880000", "160333.880000", "160335.881000", "160337.880000", "160339.880000", "160341.880000", "160343.880000", "160345.879000", "160347.880000", "160349.880000", "160351.880000", "160353.880000", "160355.880000", "160357.880000", "160359.880000", "160401.881000", "160403.880000", "160405.880000", "160407.880000", "160409.880000", "160411.880000", "160413.880000", "160415.880000", "160417.880000", "160419.880000", "160421.880000", "160423.880000", "160425.880000", "160427.880000", "160429.881000", "160431.880000", "160433.880000", "160435.880000", "160437.879000", "160439.880000", "160441.880000", "160443.879000", "160445.881000", "160447.880000", "160449.880000", "160451.880000", "160453.880000", "160455.879000", "160457.880000", "160459.880000", "160501.880000", "160503.880000", "160505.880000", "160507.881000", "160509.878000", "160511.880000", "160513.880000", "160515.881000", "160517.880000", "160519.880000", "160521.880000", "160523.880000", "160525.880000", "160527.880000", "160529.880000", "160531.880000", "160533.881000", "160535.880000", "160537.880000", "160539.880000", "160541.880000", "160543.880000", "160545.881000", "160547.879000", "160549.880000", "160551.880000", "160553.880000", "160555.880000", "160557.880000", "160559.880000", "160601.879000", "160603.880000", "160605.880000", "160607.880000", "160609.880000", "160611.429000"],
      "InstanceNumber": [1, 2, 3, 4, 5, 6, 7, 8, 9, 10, 11, 12, 13, 14, 15, 16, 17, 18, 19, 20, 21, 22, 23, 24, 25, 26, 27, 28, 29, 30, 31, 32, 33, 34, 35, 36, 37, 38, 39, 40, 41, 42, 43, 44, 45, 46, 47, 48, 49, 50, 51, 52, 53, 54, 55, 56, 57, 58, 59, 60, 61, 62, 63, 64, 65, 66, 67, 68, 69, 70, 71, 72, 73, 74, 75, 76, 77, 78, 79, 80, 81, 82, 83, 84, 85, 86, 87, 88, 89, 90, 91, 92, 93, 94, 95, 96, 97, 98, 99, 100, 101, 102, 103, 104, 105, 106, 107, 108, 109, 110, 111, 112, 113, 114, 115, 116, 117, 118, 119, 120, 121, 122, 123, 124, 125, 126, 127, 128, 129, 130, 131, 132, 133, 134, 135, 136, 137, 138, 139, 140, 141, 142, 143, 144, 145, 146, 147, 148, 149, 150, 151, 152, 153, 154, 155, 156, 157, 158, 159, 160, 161, 162, 163, 164, 165, 166, 167, 168, 169, 170, 171, 172, 173, 174, 175, 176, 177, 178, 179, 180, 181, 182, 183, 184, 185, 186, 187, 188, 189, 190, 191, 192, 193, 194, 195, 196, 197, 198, 199, 200, 201, 202, 203, 204, 205, 206, 207, 208, 209, 210, 211, 212, 213, 214, 215, 216, 217, 218],
      "WindowCenter": [15588.0, 15570.0, 15576.0, 15580.0, 15572.0, 15582.0, 15566.0, 15561.0, 15554.0, 15556.0, 15560.0, 15563.0, 15558.0, 15547.0, 15569.0, 15572.0, 15557.0, 15553.0, 15551.0, 15559.0, 15548.0, 15564.0, 15557.0, 15568.0, 15572.0, 15579.0, 15548.0, 15560.0, 15550.0, 15561.0, 15552.0, 15564.0, 15570.0, 15576.0, 15548.0, 15560.0, 15549.0, 15575.0, 15572.0, 15549.0, 15545.0, 15563.0, 15570.0, 15564.0, 15561.0, 15553.0, 15566.0, 15572.0, 15563.0, 15562.0, 15564.0, 15564.0, 15552.0, 15551.0, 15565.0, 15572.0, 15564.0, 15571.0, 15575.0, 15577.0, 15564.0, 15564.0, 15568.0, 15555.0, 15558.0, 15587.0, 15572.0, 15564.0, 15565.0, 15568.0, 15558.0, 15573.0, 15563.0, 15568.0, 15571.0, 15567.0, 15576.0, 15576.0, 15567.0, 15568.0, 15590.0, 15565.0, 15566.0, 15573.0, 15568.0, 15571.0, 15593.0, 15586.0, 15573.0, 15584.0, 15573.0, 15598.0, 15579.0, 15566.0, 15575.0, 15581.0, 15563.0, 15577.0, 15586.0, 15566.0, 15578.0, 15594.0, 15581.0, 15558.0, 15576.0, 15589.0, 15590.0, 15576.0, 15575.0, 15565.0, 15573.0, 15575.0, 15557.0, 15573.0, 15577.0, 15587.0, 15577.0, 15580.0, 15588.0, 15584.0, 15569.0, 15575.0, 15585.0, 15585.0, 15597.0, 15589.0, 15583.0, 15600.0, 15585.0, 15583.0, 15580.0, 15573.0, 15570.0, 15565.0, 15570.0, 15591.0, 15591.0, 15577.0, 15578.0, 15563.0, 15578.0, 15588.0, 15593.0, 15586.0, 15586.0, 15604.0, 15587.0, 15587.0, 15583.0, 15593.0, 15604.0, 15580.0, 15597.0, 15584.0, 15578.0, 15570.0, 15570.0, 15590.0, 15614.0, 15596.0, 15584.0, 15600.0, 15589.0, 15584.0, 15587.0, 15588.0, 15586.0, 15582.0, 15597.0, 15612.0, 15604.0, 15588.0, 15585.0, 15593.0, 15576.0, 15562.0, 15567.0, 15606.0, 15602.0, 15592.0, 15592.0, 15586.0, 15576.0, 15592.0, 15582.0, 15571.0, 15584.0, 15581.0, 15578.0, 15590.0, 15579.0, 15588.0, 15593.0, 15571.0, 15568.0, 15573.0, 15582.0, 15592.0, 15587.0, 15595.0, 15606.0, 15611.0, 15588.0, 15598.0, 15583.0, 15605.0, 15604.0, 15599.0, 15600.0, 15592.0, 15576.0, 15622.0, 15619.0, 15606.0, 15579.0, 15568.0, 15574.0, 15572.0],
      "WindowWidth": [45085.0, 45000.0, 44975.0, 44980.0, 45001.0, 44953.0, 44926.0, 44892.0, 44900.0, 44932.0, 44908.0, 44924.0, 44891.0, 44879.0, 44873.0, 44876.0, 44864.0, 44942.0, 44967.0, 44944.0, 44906.0, 44880.0, 44891.0, 44887.0, 44906.0, 44884.0, 44883.0, 44906.0, 44939.0, 44949.0, 44927.0, 44910.0, 44928.0, 44905.0, 44911.0, 44934.0, 44968.0, 45005.0, 44945.0, 44909.0, 44905.0, 44908.0, 44875.0, 44855.0, 44866.0, 44859.0, 44857.0, 44890.0, 44882.0, 44867.0, 44899.0, 44940.0, 44916.0, 44943.0, 44924.0, 44902.0, 44910.0, 44917.0, 44906.0, 44951.0, 44910.0, 44910.0, 44914.0, 44900.0, 44917.0, 44903.0, 44876.0, 44913.0, 44939.0, 44928.0, 44919.0, 44862.0, 44882.0, 44914.0, 44905.0, 44914.0, 44908.0, 44921.0, 44898.0, 44915.0, 44921.0, 44912.0, 44913.0, 44962.0, 44988.0, 45088.0, 45035.0, 44956.0, 44859.0, 44857.0, 44904.0, 44927.0, 44883.0, 44842.0, 44892.0, 44758.0, 44855.0, 44923.0, 44914.0, 44868.0, 44854.0, 44814.0, 44706.0, 44797.0, 44854.0, 44907.0, 44879.0, 44836.0, 44822.0, 44828.0, 44836.0, 44909.0, 44920.0, 44921.0, 44922.0, 44915.0, 44978.0, 44993.0, 44932.0, 44902.0, 44916.0, 44962.0, 45001.0, 45028.0, 45053.0, 44976.0, 44927.0, 44916.0, 44846.0, 44859.0, 44872.0, 44861.0, 44816.0, 44854.0, 44847.0, 44880.0, 44851.0, 44838.0, 44839.0, 44839.0, 44896.0, 44933.0, 44950.0, 44914.0, 44930.0, 44948.0, 44931.0, 44930.0, 44956.0, 44938.0, 45005.0, 44967.0, 44925.0, 44827.0, 44779.0, 44815.0, 44859.0, 44989.0, 44969.0, 44867.0, 44828.0, 44820.0, 44864.0, 44876.0, 44891.0, 44891.0, 44876.0, 44884.0, 44914.0, 44944.0, 44951.0, 44963.0, 44972.0, 44894.0, 44848.0, 44768.0, 44929.0, 45018.0, 44928.0, 44794.0, 44811.0, 44835.0, 44896.0, 44867.0, 44900.0, 44942.0, 44885.0, 44885.0, 44938.0, 44934.0, 44898.0, 44989.0, 44920.0, 44735.0, 44804.0, 44835.0, 44915.0, 44921.0, 44975.0, 44968.0, 44892.0, 44869.0, 44863.0, 44848.0, 44877.0, 44952.0, 44992.0, 44986.0, 44970.0, 44934.0, 44991.0, 44893.0, 44891.0, 44850.0, 44882.0, 44970.0, 45015.0, 45004.0]
    },
    "slices": {}
  }
}