{
  "AcquisitionMatrixPE": 116,
  "AcquisitionNumber": 1,
  "AcquisitionTime": "15:33:43.987500",
  "BandwidthPerPixelPhaseEncode": 18.539,
  "BaseResolution": 116,
  "BodyPartExamined": "HEAD",
  "ConsistencyInfo": "N4_VD13D_LATEST_20130810",
  "ConversionSoftware": "dcm2niix",
  "ConversionSoftwareVersion": "v1.0.20190410  (JP2:OpenJPEG) (JP-LS:CharLS) GCC5.5.0",
  "DerivedVendorReportedEchoSpacing": 0.000930006,
  "DeviceSerialNumber": "66014",
  "DwellTime": 3e-06,
  "EchoTime": 0.03,
  "EchoTrainLength": 50,
  "EffectiveEchoSpacing": 0.000465003,
  "FlipAngle": 81,
  "ImageComments": "Unaliased_MB3_PE4",
  "ImageOrientationPatientDICOM": [0.994629, 0.0546724, -0.0878872, -0.0590919, 0.997074, -0.0484953],
  "ImageType": [
    "ORIGINAL",
    "PRIMARY",
    "M",
    "MB",
    "ND",
    "MOSAIC"
],
  "ImagingFrequency": 123.261,
  "InPlanePhaseEncodingDirectionDICOM": "COL",
  "InstitutionAddress": "Yiheyuan_Road_5_Beijing_Haidian_CN_100871",
  "InstitutionName": "Peking_University",
  "InstitutionalDepartmentName": "Department",
  "MRAcquisitionType": "2D",
  "MagneticFieldStrength": 3,
  "Manufacturer": "Siemens",
  "ManufacturersModelName": "Prisma",
  "Modality": "MR",
  "MultibandAccelerationFactor": 3,
  "ParallelReductionFactorInPlane": 2,
  "PartialFourier": 0.875,
  "PatientPosition": "HFS",
  "PercentPhaseFOV": 100,
  "PhaseEncodingDirection": "j-",
  "PhaseEncodingSteps": 101,
  "PhaseResolution": 1,
  "PixelBandwidth": 1435,
  "ProcedureStepDescription": "Research_Projects_64CH",
  "ProtocolName": "mbep2d_bold_MB3_learn1",
  "PulseSequenceDetails": "%CustomerSeq%_cmrr_mbep2d_bold",
  "ReceiveCoilActiveElements": "HC1-7",
  "ReceiveCoilName": "HeadNeck_64",
  "ReconMatrixPE": 116,
  "RefLinesPE": 44,
  "RepetitionTime": 2,
  "SAR": 0.0475238,
  "ScanOptions": "PFP_FS",
  "ScanningSequence": "EP",
  "SequenceName": "epfid2d1_116",
  "SequenceVariant": "SK_SS",
  "SeriesDescription": "mbep2d_bold_MB3_learn1",
  "SeriesNumber": 6,
  "ShimSetting": [-3472, -2112, -1950, 328, -76, -161, -14, 30],
  "SliceThickness": 1.9,
  "SliceTiming": [0, 0.9075, 1.815, 0.7425, 1.65, 0.5775, 1.485, 0.4125, 1.32, 0.2475, 1.155, 0.0825, 0.99, 1.8975, 0.825, 1.7325, 0.66, 1.5675, 0.495, 1.4025, 0.33, 1.2375, 0.165, 1.0725, 0, 0.9075, 1.815, 0.7425, 1.65, 0.5775, 1.485, 0.4125, 1.32, 0.2475, 1.155, 0.0825, 0.99, 1.8975, 0.825, 1.7325, 0.66, 1.5675, 0.495, 1.4025, 0.33, 1.2375, 0.165, 1.0725, 0, 0.9075, 1.815, 0.7425, 1.65, 0.5775, 1.485, 0.4125, 1.32, 0.2475, 1.155, 0.0825, 0.99, 1.8975, 0.825, 1.7325, 0.66, 1.5675, 0.495, 1.4025, 0.33, 1.2375, 0.165, 1.0725],
  "SoftwareVersions": "syngo_MR_D13D",
  "SpacingBetweenSlices": 1.9,
  "StationName": "AWP66014",
  "TaskName": "updating",
  "TotalReadoutTime": 0.0534753,
  "TxRefAmp": 214.158,
  "WipMemBlock": "dfdbf165-13ae-4931-9f86-bf79c9d743d3||Sequence: vd13d/master r/0735857; Nov 19 2014 09:21:40 by eja",
  "dcmmeta_affine": [
    [-1.886365294456482, -0.11207089573144913, -0.16145944595336914, 120.96133422851562],
    [-0.1036890521645546, 1.8910021781921387, -0.10151363164186478, -90.0372543334961],
    [-0.16668257117271423, 0.09197379648685455, 1.8904036283493042, -70.83676147460938],
    [0.0, 0.0, 0.0, 1.0]
],
  "dcmmeta_reorient_transform": [
    [0.0, -1.0, 0.0, 115.0],
    [1.0, 0.0, 0.0, 0.0],
    [0.0, 0.0, 1.0, 0.0],
    [0.0, 0.0, 0.0, 1.0]
],
  "dcmmeta_shape": [116, 116, 72, 218],
  "dcmmeta_slice_dim": 2,
  "dcmmeta_version": 0.6,
  "global": {
    "const": {
      "AcquisitionMatrix": [116, 0, 0, 116],
      "AngioFlag": "N",
      "BitsAllocated": 16,
      "BitsStored": 16,
      "BodyPartExamined": "HEAD",
      "Columns": 1044,
      "EchoNumbers": 1,
      "EchoTime": 30.0,
      "EchoTrainLength": 50,
      "FlipAngle": 81.0,
      "HighBit": 15,
      "ImageOrientationPatient": [0.99462896194531, 0.0546724072875, -0.0878871773411, -0.0590919279825, 0.99707389509351, -0.048495275753],
      "ImagePositionPatient": [-931.34577486065, -1052.964751076, 59.756788035526],
      "ImageType": [
        "ORIGINAL",
        "PRIMARY",
        "M",
        "MB",
        "ND",
        "MOSAIC"
],
      "ImagedNucleus": "1H",
      "ImagingFrequency": 123.260614,
      "InPlanePhaseEncodingDirection": "COL",
      "LargestImagePixelValue": 65535,
      "MRAcquisitionType": "2D",
      "MagneticFieldStrength": 3.0,
      "Manufacturer": "SIEMENS",
      "ManufacturerModelName": "Prisma",
      "Modality": "MR",
      "NumberOfAverages": 1.0,
      "NumberOfPhaseEncodingSteps": 101,
      "PercentPhaseFieldOfView": 100.0,
      "PercentSampling": 100.0,
      "PerformedProcedureStepStartTime": "151003.579000",
      "PhotometricInterpretation": "MONOCHROME2",
      "PixelBandwidth": 1435.0,
      "PixelRepresentation": 0,
      "PixelSpacing": [1.8965517282486, 1.8965517282486],
      "ProtocolName": "mbep2d_bold_MB3_learn1",
      "RepetitionTime": 2000.0,
      "Rows": 1044,
      "SAR": 0.04752378372179,
      "SamplesPerPixel": 1,
      "ScanOptions": [
        "PFP",
        "FS"
],
      "ScanningSequence": "EP",
      "SequenceName": "epfid2d1_116",
      "SequenceVariant": [
        "SK",
        "SS"
],
      "SeriesDescription": "mbep2d_bold_MB3_learn1",
      "SeriesNumber": 6,
      "SeriesTime": "153359.066000",
      "SliceLocation": -75.947581592974,
      "SliceThickness": 1.8999999761581,
      "SmallestImagePixelValue": 0,
      "SoftwareVersions": "syngo MR D13D",
      "SpacingBetweenSlices": 1.8999999725544,
      "SpecificCharacterSet": "ISO_IR 100",
      "StudyID": "1",
      "StudyTime": "151003.509000",
      "TimeOfLastCalibration": ["123723.000000", "123723.000000"],
      "TransmitCoilName": "Body",
      "VariableFlipAngleFlag": "N",
      "WindowCenterWidthExplanation": "Algo1",
      "dBdt": 0.0},
    "slices": {}
  },
  "time": {
    "samples": {
      "AcquisitionNumber": [1, 2, 3, 4, 5, 6, 7, 8, 9, 10, 11, 12, 13, 14, 15, 16, 17, 18, 19, 20, 21, 22, 23, 24, 25, 26, 27, 28, 29, 30, 31, 32, 33, 34, 35, 36, 37, 38, 39, 40, 41, 42, 43, 44, 45, 46, 47, 48, 49, 50, 51, 52, 53, 54, 55, 56, 57, 58, 59, 60, 61, 62, 63, 64, 65, 66, 67, 68, 69, 70, 71, 72, 73, 74, 75, 76, 77, 78, 79, 80, 81, 82, 83, 84, 85, 86, 87, 88, 89, 90, 91, 92, 93, 94, 95, 96, 97, 98, 99, 100, 101, 102, 103, 104, 105, 106, 107, 108, 109, 110, 111, 112, 113, 114, 115, 116, 117, 118, 119, 120, 121, 122, 123, 124, 125, 126, 127, 128, 129, 130, 131, 132, 133, 134, 135, 136, 137, 138, 139, 140, 141, 142, 143, 144, 145, 146, 147, 148, 149, 150, 151, 152, 153, 154, 155, 156, 157, 158, 159, 160, 161, 162, 163, 164, 165, 166, 167, 168, 169, 170, 171, 172, 173, 174, 175, 176, 177, 178, 179, 180, 181, 182, 183, 184, 185, 186, 187, 188, 189, 190, 191, 192, 193, 194, 195, 196, 197, 198, 199, 200, 201, 202, 203, 204, 205, 206, 207, 208, 209, 210, 211, 212, 213, 214, 215, 216, 217, 218],
      "AcquisitionTime": ["153343.987500", "153345.987500", "153347.987500", "153349.987500", "153351.987500", "153353.987500", "153355.987500", "153357.987500", "153359.987500", "153401.987500", "153403.987500", "153405.987500", "153407.987500", "153409.987500", "153411.987500", "153413.987500", "153415.987500", "153417.987500", "153419.987500", "153421.987500", "153423.987500", "153425.987500", "153427.987500", "153429.987500", "153431.987500", "153433.987500", "153435.987500", "153437.987500", "153439.987500", "153441.987500", "153443.987500", "153445.987500", "153447.987500", "153449.987500", "153451.987500", "153453.987500", "153455.987500", "153457.987500", "153459.987500", "153501.987500", "153503.987500", "153505.987500", "153507.987500", "153509.987500", "153511.987500", "153513.987500", "153515.987500", "153517.987500", "153519.987500", "153521.987500", "153523.987500", "153525.987500", "153527.987500", "153529.987500", "153531.987500", "153533.987500", "153535.987500", "153537.987500", "153539.987500", "153541.987500", "153543.987500", "153545.987500", "153547.987500", "153549.987500", "153551.987500", "153553.987500", "153555.987500", "153557.987500", "153559.987500", "153601.987500", "153603.987500", "153605.987500", "153607.990000", "153609.990000", "153611.990000", "153613.990000", "153615.990000", "153617.990000", "153619.990000", "153621.990000", "153623.990000", "153625.990000", "153627.990000", "153629.990000", "153631.990000", "153633.990000", "153635.990000", "153637.990000", "153639.990000", "153641.990000", "153643.990000", "153645.990000", "153647.990000", "153649.990000", "153651.990000", "153653.990000", "153655.990000", "153657.990000", "153659.990000", "153701.990000", "153703.990000", "153705.990000", "153707.990000", "153709.990000", "153711.990000", "153713.990000", "153715.990000", "153717.990000", "153719.990000", "153721.990000", "153723.990000", "153725.990000", "153727.990000", "153729.990000", "153731.990000", "153733.990000", "153735.990000", "153737.990000", "153739.990000", "153741.990000", "153743.990000", "153745.990000", "153747.990000", "153749.990000", "153751.990000", "153753.990000", "153755.990000", "153757.990000", "153759.990000", "153801.990000", "153803.990000", "153805.990000", "153807.990000", "153809.990000", "153811.990000", "153813.990000", "153815.990000", "153817.990000", "153819.990000", "153821.990000", "153823.990000", "153825.990000", "153827.990000", "153829.990000", "153831.990000", "153833.990000", "153835.990000", "153837.990000", "153839.990000", "153841.990000", "153843.990000", "153845.990000", "153847.990000", "153849.990000", "153851.990000", "153853.990000", "153855.990000", "153857.990000", "153859.990000", "153901.990000", "153903.990000", "153905.990000", "153907.990000", "153909.990000", "153911.990000", "153913.990000", "153915.990000", "153917.990000", "153919.990000", "153921.990000", "153923.990000", "153925.990000", "153927.990000", "153929.990000", "153931.990000", "153933.990000", "153935.990000", "153937.990000", "153939.990000", "153941.990000", "153943.990000", "153945.990000", "153947.990000", "153949.990000", "153951.990000", "153953.990000", "153955.990000", "153957.990000", "153959.990000", "154001.990000", "154003.990000", "154005.990000", "154007.990000", "154009.990000", "154011.990000", "154013.990000", "154015.990000", "154017.990000", "154019.990000", "154021.990000", "154023.990000", "154025.990000", "154027.990000", "154029.990000", "154031.990000", "154033.990000", "154035.990000", "154037.990000", "154039.990000", "154041.990000", "154043.990000", "154045.990000", "154047.990000", "154049.990000", "154051.990000", "154053.990000", "154055.990000", "154057.990000"],
      "ContentTime": ["153359.072000", "153400.064000", "153400.068000", "153401.065000", "153402.064000", "153402.069000", "153403.064000", "153404.065000", "153405.064000", "153406.065000", "153407.064000", "153408.566000", "153410.565000", "153412.565000", "153414.565000", "153416.565000", "153418.565000", "153420.565000", "153422.565000", "153424.565000", "153426.565000", "153428.565000", "153430.565000", "153432.565000", "153434.565000", "153436.565000", "153438.563000", "153440.565000", "153442.563000", "153444.565000", "153446.565000", "153448.565000", "153450.565000", "153452.566000", "153454.565000", "153456.565000", "153458.566000", "153500.565000", "153502.565000", "153504.565000", "153506.565000", "153508.565000", "153510.565000", "153512.564000", "153514.564000", "153516.565000", "153518.565000", "153520.566000", "153522.566000", "153524.565000", "153526.565000", "153528.565000", "153530.565000", "153532.565000", "153534.565000", "153536.566000", "153538.565000", "153540.565000", "153542.565000", "153544.565000", "153546.565000", "153548.565000", "153550.565000", "153552.565000", "153554.565000", "153556.565000", "153558.565000", "153600.565000", "153602.565000", "153604.565000", "153606.565000", "153608.565000", "153610.565000", "153612.566000", "153614.565000", "153616.565000", "153618.565000", "153620.576000", "153622.565000", "153624.565000", "153626.565000", "153628.565000", "153630.565000", "153632.565000", "153634.565000", "153636.565000", "153638.565000", "153640.565000", "153642.565000", "153644.565000", "153646.565000", "153648.565000", "153650.563000", "153652.565000", "153654.565000", "153656.565000", "153658.565000", "153700.565000", "153702.565000", "153704.565000", "153706.565000", "153708.565000", "153710.566000", "153712.565000", "153714.565000", "153716.565000", "153718.565000", "153720.565000", "153722.565000", "153724.565000", "153726.565000", "153728.565000", "153730.565000", "153732.565000", "153734.565000", "153736.565000", "153738.566000", "153740.563000", "153742.565000", "153744.565000", "153746.565000", "153748.565000", "153750.565000", "153752.565000", "153754.565000", "153756.565000", "153758.565000", "153800.565000", "153802.565000", "153804.565000", "153806.565000", "153808.565000", "153810.566000", "153812.565000", "153814.565000", "153816.565000", "153818.565000", "153820.565000", "153822.565000", "153824.565000", "153826.565000", "153828.563000", "153830.565000", "153832.565000", "153834.565000", "153836.565000", "153838.565000", "153840.565000", "153842.565000", "153844.565000", "153846.565000", "153848.564000", "153850.565000", "153852.565000", "153854.565000", "153856.566000", "153858.566000", "153900.565000", "153902.565000", "153904.565000", "153906.566000", "153908.565000", "153910.564000", "153912.565000", "153914.565000", "153916.566000", "153918.566000", "153920.565000", "153922.565000", "153924.566000", "153926.565000", "153928.565000", "153930.565000", "153932.565000", "153934.565000", "153936.565000", "153938.566000", "153940.565000", "153942.565000", "153944.565000", "153946.566000", "153948.565000", "153950.565000", "153952.564000", "153954.565000", "153956.565000", "153958.565000", "154000.565000", "154002.566000", "154004.565000", "154006.566000", "154008.565000", "154010.565000", "154012.565000", "154014.565000", "154016.566000", "154018.566000", "154020.565000", "154022.565000", "154024.565000", "154026.565000", "154028.565000", "154030.565000", "154032.565000", "154034.565000", "154036.565000", "154038.565000", "154040.564000", "154042.565000", "154044.565000", "154046.565000", "154048.566000", "154050.566000", "154052.565000", "154054.565000", "154056.565000", "154058.565000", "154100.455000"],
      "InstanceCreationTime": ["153359.072000", "153400.064000", "153400.068000", "153401.065000", "153402.064000", "153402.069000", "153403.064000", "153404.065000", "153405.064000", "153406.065000", "153407.064000", "153408.566000", "153410.565000", "153412.565000", "153414.565000", "153416.565000", "153418.565000", "153420.565000", "153422.565000", "153424.565000", "153426.565000", "153428.565000", "153430.565000", "153432.565000", "153434.565000", "153436.565000", "153438.563000", "153440.565000", "153442.563000", "153444.565000", "153446.565000", "153448.565000", "153450.565000", "153452.566000", "153454.565000", "153456.565000", "153458.566000", "153500.565000", "153502.565000", "153504.565000", "153506.565000", "153508.565000", "153510.565000", "153512.564000", "153514.564000", "153516.565000", "153518.565000", "153520.566000", "153522.566000", "153524.565000", "153526.565000", "153528.565000", "153530.565000", "153532.565000", "153534.565000", "153536.566000", "153538.565000", "153540.565000", "153542.565000", "153544.565000", "153546.565000", "153548.565000", "153550.565000", "153552.565000", "153554.565000", "153556.565000", "153558.565000", "153600.565000", "153602.565000", "153604.565000", "153606.565000", "153608.565000", "153610.565000", "153612.566000", "153614.565000", "153616.565000", "153618.565000", "153620.576000", "153622.565000", "153624.565000", "153626.565000", "153628.565000", "153630.565000", "153632.565000", "153634.565000", "153636.565000", "153638.565000", "153640.565000", "153642.565000", "153644.565000", "153646.565000", "153648.565000", "153650.563000", "153652.565000", "153654.565000", "153656.565000", "153658.565000", "153700.565000", "153702.565000", "153704.565000", "153706.565000", "153708.565000", "153710.566000", "153712.565000", "153714.565000", "153716.565000", "153718.565000", "153720.565000", "153722.565000", "153724.565000", "153726.565000", "153728.565000", "153730.565000", "153732.565000", "153734.565000", "153736.565000", "153738.566000", "153740.563000", "153742.565000", "153744.565000", "153746.565000", "153748.565000", "153750.565000", "153752.565000", "153754.565000", "153756.565000", "153758.565000", "153800.565000", "153802.565000", "153804.565000", "153806.565000", "153808.565000", "153810.566000", "153812.565000", "153814.565000", "153816.565000", "153818.565000", "153820.565000", "153822.565000", "153824.565000", "153826.565000", "153828.563000", "153830.565000", "153832.565000", "153834.565000", "153836.565000", "153838.565000", "153840.565000", "153842.565000", "153844.565000", "153846.565000", "153848.564000", "153850.565000", "153852.565000", "153854.565000", "153856.566000", "153858.566000", "153900.565000", "153902.565000", "153904.565000", "153906.566000", "153908.565000", "153910.564000", "153912.565000", "153914.565000", "153916.566000", "153918.566000", "153920.565000", "153922.565000", "153924.566000", "153926.565000", "153928.565000", "153930.565000", "153932.565000", "153934.565000", "153936.565000", "153938.566000", "153940.565000", "153942.565000", "153944.565000", "153946.566000", "153948.565000", "153950.565000", "153952.564000", "153954.565000", "153956.565000", "153958.565000", "154000.565000", "154002.566000", "154004.565000", "154006.566000", "154008.565000", "154010.565000", "154012.565000", "154014.565000", "154016.566000", "154018.566000", "154020.565000", "154022.565000", "154024.565000", "154026.565000", "154028.565000", "154030.565000", "154032.565000", "154034.565000", "154036.565000", "154038.565000", "154040.564000", "154042.565000", "154044.565000", "154046.565000", "154048.566000", "154050.566000", "154052.565000", "154054.565000", "154056.565000", "154058.565000", "154100.455000"],
      "InstanceNumber": [1, 2, 3, 4, 5, 6, 7, 8, 9, 10, 11, 12, 13, 14, 15, 16, 17, 18, 19, 20, 21, 22, 23, 24, 25, 26, 27, 28, 29, 30, 31, 32, 33, 34, 35, 36, 37, 38, 39, 40, 41, 42, 43, 44, 45, 46, 47, 48, 49, 50, 51, 52, 53, 54, 55, 56, 57, 58, 59, 60, 61, 62, 63, 64, 65, 66, 67, 68, 69, 70, 71, 72, 73, 74, 75, 76, 77, 78, 79, 80, 81, 82, 83, 84, 85, 86, 87, 88, 89, 90, 91, 92, 93, 94, 95, 96, 97, 98, 99, 100, 101, 102, 103, 104, 105, 106, 107, 108, 109, 110, 111, 112, 113, 114, 115, 116, 117, 118, 119, 120, 121, 122, 123, 124, 125, 126, 127, 128, 129, 130, 131, 132, 133, 134, 135, 136, 137, 138, 139, 140, 141, 142, 143, 144, 145, 146, 147, 148, 149, 150, 151, 152, 153, 154, 155, 156, 157, 158, 159, 160, 161, 162, 163, 164, 165, 166, 167, 168, 169, 170, 171, 172, 173, 174, 175, 176, 177, 178, 179, 180, 181, 182, 183, 184, 185, 186, 187, 188, 189, 190, 191, 192, 193, 194, 195, 196, 197, 198, 199, 200, 201, 202, 203, 204, 205, 206, 207, 208, 209, 210, 211, 212, 213, 214, 215, 216, 217, 218],
      "WindowCenter": [15476.0, 15482.0, 15460.0, 15464.0, 15451.0, 15459.0, 15453.0, 15441.0, 15434.0, 15450.0, 15439.0, 15427.0, 15450.0, 15461.0, 15462.0, 15447.0, 15422.0, 15444.0, 15431.0, 15423.0, 15423.0, 15449.0, 15430.0, 15437.0, 15438.0, 15419.0, 15433.0, 15449.0, 15453.0, 15450.0, 15444.0, 15462.0, 15447.0, 15436.0, 15447.0, 15456.0, 15455.0, 15445.0, 15443.0, 15438.0, 15437.0, 15444.0, 15456.0, 15464.0, 15461.0, 15453.0, 15455.0, 15461.0, 15456.0, 15464.0, 15467.0, 15452.0, 15448.0, 15447.0, 15457.0, 15465.0, 15451.0, 15458.0, 15456.0, 15452.0, 15459.0, 15450.0, 15457.0, 15446.0, 15451.0, 15440.0, 15436.0, 15448.0, 15466.0, 15471.0, 15476.0, 15472.0, 15469.0, 15467.0, 15476.0, 15454.0, 15453.0, 15444.0, 15470.0, 15474.0, 15483.0, 15461.0, 15467.0, 15474.0, 15478.0, 15472.0, 15463.0, 15449.0, 15458.0, 15474.0, 15452.0, 15464.0, 15473.0, 15466.0, 15472.0, 15476.0, 15477.0, 15467.0, 15463.0, 15480.0, 15475.0, 15487.0, 15475.0, 15499.0, 15489.0, 15486.0, 15488.0, 15481.0, 15469.0, 15475.0, 15472.0, 15459.0, 15456.0, 15471.0, 15497.0, 15505.0, 15465.0, 15471.0, 15478.0, 15467.0, 15477.0, 15478.0, 15481.0, 15480.0, 15473.0, 15486.0, 15484.0, 15498.0, 15480.0, 15478.0, 15484.0, 15468.0, 15500.0, 15490.0, 15494.0, 15499.0, 15499.0, 15499.0, 15490.0, 15497.0, 15506.0, 15496.0, 15496.0, 15488.0, 15501.0, 15496.0, 15493.0, 15484.0, 15509.0, 15476.0, 15477.0, 15490.0, 15501.0, 15494.0, 15505.0, 15512.0, 15501.0, 15490.0, 15486.0, 15481.0, 15477.0, 15490.0, 15499.0, 15517.0, 15490.0, 15494.0, 15496.0, 15502.0, 15520.0, 15507.0, 15504.0, 15493.0, 15492.0, 15495.0, 15498.0, 15502.0, 15521.0, 15490.0, 15495.0, 15467.0, 15486.0, 15498.0, 15505.0, 15509.0, 15486.0, 15502.0, 15503.0, 15501.0, 15507.0, 15495.0, 15510.0, 15521.0, 15504.0, 15513.0, 15509.0, 15522.0, 15504.0, 15509.0, 15516.0, 15514.0, 15512.0, 15504.0, 15517.0, 15528.0, 15533.0, 15513.0, 15501.0, 15522.0, 15526.0, 15502.0, 15510.0, 15492.0, 15512.0, 15525.0, 15524.0, 15509.0, 15503.0, 15505.0],
      "WindowWidth": [45304.0, 45227.0, 45235.0, 45257.0, 45256.0, 45179.0, 45184.0, 45188.0, 45182.0, 45182.0, 45157.0, 45165.0, 45156.0, 45081.0, 45055.0, 45053.0, 45043.0, 45051.0, 45081.0, 45017.0, 44972.0, 44968.0, 44983.0, 44961.0, 44947.0, 44958.0, 44955.0, 44958.0, 45007.0, 45046.0, 45040.0, 45013.0, 45027.0, 44988.0, 44958.0, 44995.0, 44995.0, 44953.0, 44924.0, 44904.0, 44920.0, 44941.0, 44965.0, 44974.0, 45014.0, 44995.0, 44995.0, 45030.0, 45010.0, 44988.0, 45004.0, 44961.0, 44958.0, 45029.0, 45025.0, 45004.0, 45018.0, 45051.0, 45053.0, 45064.0, 44999.0, 44963.0, 44980.0, 44943.0, 44960.0, 44992.0, 44961.0, 45015.0, 45019.0, 45012.0, 45074.0, 44982.0, 44979.0, 45006.0, 44988.0, 45008.0, 44991.0, 44985.0, 45010.0, 45054.0, 45008.0, 45044.0, 45048.0, 45044.0, 45019.0, 45013.0, 45029.0, 45031.0, 45054.0, 45027.0, 45006.0, 44976.0, 44956.0, 44935.0, 44943.0, 44962.0, 44961.0, 44993.0, 44989.0, 44962.0, 44998.0, 44953.0, 44930.0, 44924.0, 44919.0, 44943.0, 44942.0, 44936.0, 44966.0, 44986.0, 44982.0, 44972.0, 45025.0, 45068.0, 45065.0, 45044.0, 44920.0, 44927.0, 44962.0, 44952.0, 44946.0, 44976.0, 44979.0, 44992.0, 45015.0, 45040.0, 45040.0, 45039.0, 45051.0, 45018.0, 44984.0, 45037.0, 45010.0, 45031.0, 45034.0, 45024.0, 45011.0, 44980.0, 44973.0, 44996.0, 44990.0, 44966.0, 44951.0, 44985.0, 44970.0, 44979.0, 44978.0, 45027.0, 45020.0, 45031.0, 45058.0, 45028.0, 44998.0, 44992.0, 45004.0, 45010.0, 44973.0, 45003.0, 45023.0, 45033.0, 45045.0, 45058.0, 45082.0, 45000.0, 44987.0, 44991.0, 44965.0, 44972.0, 44977.0, 45007.0, 44988.0, 44948.0, 44989.0, 45008.0, 45040.0, 45014.0, 45019.0, 45059.0, 45035.0, 45049.0, 45012.0, 45040.0, 45017.0, 44979.0, 44998.0, 44988.0, 45001.0, 44970.0, 44977.0, 44994.0, 44994.0, 45019.0, 44990.0, 44985.0, 45033.0, 45003.0, 44989.0, 45007.0, 45028.0, 45041.0, 44992.0, 44971.0, 44972.0, 45027.0, 45002.0, 44969.0, 44986.0, 44976.0, 44981.0, 45029.0, 45021.0, 45047.0, 45065.0, 45050.0, 45021.0, 45022.0, 45057.0, 45046.0]
    },
    "slices": {}
  }
}