{
  "AcquisitionMatrixPE": 116,
  "AcquisitionNumber": 1,
  "AcquisitionTime": "14:25:53.592500",
  "BandwidthPerPixelPhaseEncode": 18.539,
  "BaseResolution": 116,
  "BodyPartExamined": "HEAD",
  "ConsistencyInfo": "N4_VD13D_LATEST_20130810",
  "ConversionSoftware": "dcm2niix",
  "ConversionSoftwareVersion": "v1.0.20190410  (JP2:OpenJPEG) (JP-LS:CharLS) GCC5.5.0",
  "DerivedVendorReportedEchoSpacing": 0.000930006,
  "DeviceSerialNumber": "66014",
  "DwellTime": 3e-06,
  "EchoTime": 0.03,
  "EchoTrainLength": 50,
  "EffectiveEchoSpacing": 0.000465003,
  "FlipAngle": 81,
  "ImageComments": "Unaliased_MB3_PE4",
  "ImageOrientationPatientDICOM": [0.99924, 0.0366683, 0.0132442, -0.0366405, 0.999326, -0.00233669],
  "ImageType": [
    "ORIGINAL",
    "PRIMARY",
    "M",
    "MB",
    "ND",
    "MOSAIC"
],
  "ImagingFrequency": 123.261,
  "InPlanePhaseEncodingDirectionDICOM": "COL",
  "InstitutionAddress": "Yiheyuan_Road_5_Beijing_Haidian_CN_100871",
  "InstitutionName": "Peking_Univeristy",
  "InstitutionalDepartmentName": "Department",
  "MRAcquisitionType": "2D",
  "MagneticFieldStrength": 3,
  "Manufacturer": "Siemens",
  "ManufacturersModelName": "Prisma",
  "Modality": "MR",
  "MultibandAccelerationFactor": 3,
  "ParallelReductionFactorInPlane": 2,
  "PartialFourier": 0.875,
  "PatientPosition": "HFS",
  "PercentPhaseFOV": 100,
  "PhaseEncodingDirection": "j-",
  "PhaseEncodingSteps": 101,
  "PhaseResolution": 1,
  "PixelBandwidth": 1435,
  "ProcedureStepDescription": "Research_Projects_64CH",
  "ProtocolName": "mbep2d_bold_MB3_learn6",
  "PulseSequenceDetails": "%CustomerSeq%_cmrr_mbep2d_bold",
  "ReceiveCoilActiveElements": "HC1-6",
  "ReceiveCoilName": "HeadNeck_64",
  "ReconMatrixPE": 116,
  "RefLinesPE": 44,
  "RepetitionTime": 2,
  "SAR": 0.0504924,
  "ScanOptions": "PFP_FS",
  "ScanningSequence": "EP",
  "SequenceName": "epfid2d1_116",
  "SequenceVariant": "SK_SS",
  "SeriesDescription": "mbep2d_bold_MB3_learn6",
  "SeriesNumber": 11,
  "ShimSetting": [-3437, -2144, -2024, 180, 1, -162, -55, -22],
  "SliceThickness": 1.9,
  "SliceTiming": [0, 0.9075, 1.815, 0.7425, 1.65, 0.5775, 1.485, 0.4125, 1.32, 0.2475, 1.155, 0.0825, 0.99, 1.8975, 0.825, 1.7325, 0.66, 1.5675, 0.495, 1.4025, 0.33, 1.2375, 0.165, 1.0725, 0, 0.9075, 1.815, 0.7425, 1.65, 0.5775, 1.485, 0.4125, 1.32, 0.2475, 1.155, 0.0825, 0.99, 1.8975, 0.825, 1.7325, 0.66, 1.5675, 0.495, 1.4025, 0.33, 1.2375, 0.165, 1.0725, 0, 0.9075, 1.815, 0.7425, 1.65, 0.5775, 1.485, 0.4125, 1.32, 0.2475, 1.155, 0.0825, 0.99, 1.8975, 0.825, 1.7325, 0.66, 1.5675, 0.495, 1.4025, 0.33, 1.2375, 0.165, 1.0725],
  "SoftwareVersions": "syngo_MR_D13D",
  "SpacingBetweenSlices": 1.9,
  "StationName": "AWP66014",
  "TaskName": "updating",
  "TotalReadoutTime": 0.0534753,
  "TxRefAmp": 212.737,
  "WipMemBlock": "322f4a07-d855-458e-9dbf-5be50957478a||Sequence: vd13d/master r/0735857; Nov 19 2014 09:21:40 by eja",
  "dcmmeta_affine": [
    [-1.89510977268219, -0.06949052214622498, 0.02530987747013569, 112.81647491455078],
    [-0.0695432648062706, 1.8952730894088745, -0.0035143138375133276, -104.5630111694336],
    [0.025118377059698105, 0.004431653767824173, 1.8998281955718994, -61.78947830200195],
    [0.0, 0.0, 0.0, 1.0]
],
  "dcmmeta_reorient_transform": [
    [0.0, -1.0, 0.0, 115.0],
    [1.0, 0.0, 0.0, 0.0],
    [0.0, 0.0, 1.0, 0.0],
    [0.0, 0.0, 0.0, 1.0]
],
  "dcmmeta_shape": [116, 116, 72, 218],
  "dcmmeta_slice_dim": 2,
  "dcmmeta_version": 0.6,
  "global": {
    "const": {
      "AcquisitionMatrix": [116, 0, 0, 116],
      "AngioFlag": "N",
      "BitsAllocated": 16,
      "BitsStored": 16,
      "BodyPartExamined": "HEAD",
      "Columns": 1044,
      "EchoNumbers": 1,
      "EchoTime": 30.0,
      "EchoTrainLength": 50,
      "FlipAngle": 81.0,
      "HighBit": 15,
      "ImageOrientationPatient": [0.99923972515399, 0.03666826851768, 0.01324423490016, -0.0366404552234, 0.99932578117447, -0.0023366901921],
      "ImagePositionPatient": [-951.91242831889, -1025.0681569118, -70.878478744792],
      "ImageType": [
        "ORIGINAL",
        "PRIMARY",
        "M",
        "MB",
        "ND",
        "MOSAIC"
],
      "ImagedNucleus": "1H",
      "ImagingFrequency": 123.260641,
      "InPlanePhaseEncodingDirection": "COL",
      "LargestImagePixelValue": 65535,
      "MRAcquisitionType": "2D",
      "MagneticFieldStrength": 3.0,
      "Manufacturer": "SIEMENS",
      "ManufacturerModelName": "Prisma",
      "Modality": "MR",
      "NumberOfAverages": 1.0,
      "NumberOfPhaseEncodingSteps": 101,
      "PercentPhaseFieldOfView": 100.0,
      "PercentSampling": 100.0,
      "PerformedProcedureStepStartTime": "130947.059000",
      "PhotometricInterpretation": "MONOCHROME2",
      "PixelBandwidth": 1435.0,
      "PixelRepresentation": 0,
      "PixelSpacing": [1.8965517282486, 1.8965517282486],
      "ProtocolName": "mbep2d_bold_MB3_learn6",
      "RepetitionTime": 2000.0,
      "Rows": 1044,
      "SAR": 0.05049239126613,
      "SamplesPerPixel": 1,
      "ScanOptions": [
        "PFP",
        "FS"
],
      "ScanningSequence": "EP",
      "SequenceName": "epfid2d1_116",
      "SequenceVariant": [
        "SK",
        "SS"
],
      "SeriesDescription": "mbep2d_bold_MB3_learn6",
      "SeriesNumber": 11,
      "SeriesTime": "142604.934000",
      "SliceLocation": -60.08766065417,
      "SliceThickness": 1.8999999761581,
      "SmallestImagePixelValue": 0,
      "SoftwareVersions": "syngo MR D13D",
      "SpacingBetweenSlices": 1.9000000331039,
      "SpecificCharacterSet": "ISO_IR 100",
      "StudyID": "1",
      "StudyTime": "130947.004000",
      "TimeOfLastCalibration": ["123723.000000", "123723.000000"],
      "TransmitCoilName": "Body",
      "VariableFlipAngleFlag": "N",
      "WindowCenterWidthExplanation": "Algo1",
      "dBdt": 0.0},
    "slices": {}
  },
  "time": {
    "samples": {
      "AcquisitionNumber": [1, 2, 3, 4, 5, 6, 7, 8, 9, 10, 11, 12, 13, 14, 15, 16, 17, 18, 19, 20, 21, 22, 23, 24, 25, 26, 27, 28, 29, 30, 31, 32, 33, 34, 35, 36, 37, 38, 39, 40, 41, 42, 43, 44, 45, 46, 47, 48, 49, 50, 51, 52, 53, 54, 55, 56, 57, 58, 59, 60, 61, 62, 63, 64, 65, 66, 67, 68, 69, 70, 71, 72, 73, 74, 75, 76, 77, 78, 79, 80, 81, 82, 83, 84, 85, 86, 87, 88, 89, 90, 91, 92, 93, 94, 95, 96, 97, 98, 99, 100, 101, 102, 103, 104, 105, 106, 107, 108, 109, 110, 111, 112, 113, 114, 115, 116, 117, 118, 119, 120, 121, 122, 123, 124, 125, 126, 127, 128, 129, 130, 131, 132, 133, 134, 135, 136, 137, 138, 139, 140, 141, 142, 143, 144, 145, 146, 147, 148, 149, 150, 151, 152, 153, 154, 155, 156, 157, 158, 159, 160, 161, 162, 163, 164, 165, 166, 167, 168, 169, 170, 171, 172, 173, 174, 175, 176, 177, 178, 179, 180, 181, 182, 183, 184, 185, 186, 187, 188, 189, 190, 191, 192, 193, 194, 195, 196, 197, 198, 199, 200, 201, 202, 203, 204, 205, 206, 207, 208, 209, 210, 211, 212, 213, 214, 215, 216, 217, 218],
      "AcquisitionTime": ["142553.592500", "142555.592500", "142557.592500", "142559.592500", "142601.592500", "142603.592500", "142605.592500", "142607.592500", "142609.592500", "142611.592500", "142613.592500", "142615.592500", "142617.592500", "142619.592500", "142621.592500", "142623.592500", "142625.592500", "142627.592500", "142629.592500", "142631.592500", "142633.592500", "142635.592500", "142637.592500", "142639.592500", "142641.592500", "142643.592500", "142645.592500", "142647.592500", "142649.592500", "142651.592500", "142653.592500", "142655.592500", "142657.592500", "142659.592500", "142701.592500", "142703.592500", "142705.592500", "142707.592500", "142709.592500", "142711.592500", "142713.592500", "142715.592500", "142717.592500", "142719.592500", "142721.592500", "142723.592500", "142725.592500", "142727.592500", "142729.592500", "142731.592500", "142733.592500", "142735.592500", "142737.592500", "142739.592500", "142741.592500", "142743.592500", "142745.592500", "142747.592500", "142749.592500", "142751.592500", "142753.592500", "142755.592500", "142757.592500", "142759.592500", "142801.592500", "142803.592500", "142805.592500", "142807.592500", "142809.592500", "142811.592500", "142813.592500", "142815.592500", "142817.592500", "142819.592500", "142821.592500", "142823.592500", "142825.592500", "142827.592500", "142829.592500", "142831.592500", "142833.592500", "142835.592500", "142837.592500", "142839.592500", "142841.592500", "142843.592500", "142845.592500", "142847.592500", "142849.592500", "142851.592500", "142853.592500", "142855.592500", "142857.592500", "142859.592500", "142901.592500", "142903.592500", "142905.592500", "142907.592500", "142909.592500", "142911.592500", "142913.592500", "142915.592500", "142917.592500", "142919.592500", "142921.592500", "142923.592500", "142925.592500", "142927.592500", "142929.592500", "142931.592500", "142933.592500", "142935.592500", "142937.592500", "142939.592500", "142941.592500", "142943.592500", "142945.592500", "142947.592500", "142949.592500", "142951.592500", "142953.592500", "142955.592500", "142957.592500", "142959.592500", "143001.592500", "143003.595000", "143005.595000", "143007.595000", "143009.595000", "143011.595000", "143013.595000", "143015.595000", "143017.595000", "143019.595000", "143021.595000", "143023.595000", "143025.595000", "143027.595000", "143029.595000", "143031.595000", "143033.595000", "143035.595000", "143037.595000", "143039.595000", "143041.595000", "143043.595000", "143045.595000", "143047.595000", "143049.595000", "143051.595000", "143053.595000", "143055.595000", "143057.595000", "143059.595000", "143101.595000", "143103.595000", "143105.595000", "143107.595000", "143109.595000", "143111.595000", "143113.595000", "143115.595000", "143117.595000", "143119.595000", "143121.595000", "143123.595000", "143125.595000", "143127.595000", "143129.595000", "143131.595000", "143133.595000", "143135.595000", "143137.595000", "143139.595000", "143141.595000", "143143.595000", "143145.595000", "143147.595000", "143149.595000", "143151.595000", "143153.595000", "143155.595000", "143157.595000", "143159.595000", "143201.595000", "143203.595000", "143205.595000", "143207.595000", "143209.595000", "143211.595000", "143213.595000", "143215.595000", "143217.595000", "143219.595000", "143221.595000", "143223.595000", "143225.595000", "143227.595000", "143229.595000", "143231.595000", "143233.595000", "143235.595000", "143237.595000", "143239.595000", "143241.595000", "143243.595000", "143245.595000", "143247.595000", "143249.595000", "143251.595000", "143253.595000", "143255.595000", "143257.595000", "143259.595000", "143301.595000", "143303.595000", "143305.595000", "143307.595000"],
      "ContentTime": ["142604.940000", "142605.933000", "142605.937000", "142606.933000", "142607.934000", "142607.938000", "142608.933000", "142609.933000", "142612.434000", "142613.934000", "142615.934000", "142617.934000", "142620.434000", "142621.932000", "142623.935000", "142625.934000", "142628.433000", "142629.934000", "142632.433000", "142633.935000", "142636.434000", "142637.933000", "142640.434000", "142642.434000", "142644.433000", "142645.934000", "142647.934000", "142650.434000", "142652.434000", "142653.933000", "142655.934000", "142657.934000", "142700.434000", "142701.934000", "142703.934000", "142705.934000", "142707.934000", "142709.934000", "142712.434000", "142713.934000", "142716.433000", "142717.933000", "142720.434000", "142721.933000", "142723.934000", "142725.934000", "142727.934000", "142729.933000", "142731.934000", "142733.934000", "142735.934000", "142737.933000", "142740.434000", "142741.933000", "142743.934000", "142745.943000", "142748.434000", "142749.934000", "142751.934000", "142753.934000", "142756.434000", "142757.933000", "142800.433000", "142801.934000", "142803.933000", "142805.934000", "142808.434000", "142809.933000", "142812.434000", "142814.434000", "142816.434000", "142817.934000", "142819.933000", "142821.935000", "142824.434000", "142825.933000", "142827.934000", "142829.934000", "142831.934000", "142833.934000", "142835.934000", "142837.934000", "142839.934000", "142842.433000", "142844.434000", "142845.934000", "142847.934000", "142849.934000", "142851.934000", "142853.935000", "142855.933000", "142857.934000", "142859.934000", "142901.934000", "142903.934000", "142905.934000", "142907.934000", "142909.934000", "142911.934000", "142913.934000", "142915.934000", "142917.934000", "142919.934000", "142921.935000", "142923.935000", "142926.433000", "142927.934000", "142929.934000", "142932.433000", "142933.933000", "142936.434000", "142937.934000", "142939.934000", "142941.934000", "142944.433000", "142945.932000", "142947.934000", "142949.935000", "142951.934000", "142953.935000", "142956.434000", "142957.934000", "142959.934000", "143001.935000", "143004.434000", "143005.934000", "143007.934000", "143009.934000", "143011.934000", "143013.934000", "143015.935000", "143017.935000", "143019.934000", "143021.933000", "143023.934000", "143025.934000", "143027.934000", "143029.934000", "143031.934000", "143033.934000", "143035.934000", "143037.934000", "143039.934000", "143041.935000", "143044.434000", "143045.934000", "143047.934000", "143049.934000", "143051.934000", "143053.935000", "143055.934000", "143057.934000", "143059.935000", "143101.934000", "143103.934000", "143105.934000", "143107.935000", "143109.934000", "143111.934000", "143113.934000", "143115.934000", "143117.933000", "143119.934000", "143121.934000", "143123.934000", "143126.434000", "143127.933000", "143130.434000", "143131.934000", "143133.934000", "143135.934000", "143137.934000", "143139.934000", "143141.934000", "143143.934000", "143145.934000", "143147.934000", "143149.934000", "143151.935000", "143153.934000", "143155.934000", "143157.934000", "143159.934000", "143201.934000", "143203.933000", "143205.934000", "143207.932000", "143209.933000", "143212.433000", "143213.934000", "143215.934000", "143217.934000", "143220.434000", "143221.934000", "143223.934000", "143225.934000", "143227.935000", "143229.934000", "143231.934000", "143233.934000", "143235.934000", "143237.934000", "143239.935000", "143241.934000", "143243.934000", "143245.934000", "143248.433000", "143249.933000", "143251.934000", "143253.935000", "143256.434000", "143257.934000", "143259.934000", "143301.935000", "143303.934000", "143305.934000", "143307.935000", "143309.886000"],
      "InstanceCreationTime": ["142604.940000", "142605.933000", "142605.937000", "142606.933000", "142607.934000", "142607.938000", "142608.933000", "142609.933000", "142612.434000", "142613.934000", "142615.934000", "142617.934000", "142620.434000", "142621.932000", "142623.935000", "142625.934000", "142628.433000", "142629.934000", "142632.433000", "142633.935000", "142636.434000", "142637.933000", "142640.434000", "142642.434000", "142644.433000", "142645.934000", "142647.934000", "142650.434000", "142652.434000", "142653.933000", "142655.934000", "142657.934000", "142700.434000", "142701.934000", "142703.934000", "142705.934000", "142707.934000", "142709.934000", "142712.434000", "142713.934000", "142716.433000", "142717.933000", "142720.434000", "142721.933000", "142723.934000", "142725.934000", "142727.934000", "142729.933000", "142731.934000", "142733.934000", "142735.934000", "142737.933000", "142740.434000", "142741.933000", "142743.934000", "142745.943000", "142748.434000", "142749.934000", "142751.934000", "142753.934000", "142756.434000", "142757.933000", "142800.433000", "142801.934000", "142803.933000", "142805.934000", "142808.434000", "142809.933000", "142812.434000", "142814.434000", "142816.434000", "142817.934000", "142819.933000", "142821.935000", "142824.434000", "142825.933000", "142827.934000", "142829.934000", "142831.934000", "142833.934000", "142835.934000", "142837.934000", "142839.934000", "142842.433000", "142844.434000", "142845.934000", "142847.934000", "142849.934000", "142851.934000", "142853.935000", "142855.933000", "142857.934000", "142859.934000", "142901.934000", "142903.934000", "142905.934000", "142907.934000", "142909.934000", "142911.934000", "142913.934000", "142915.934000", "142917.934000", "142919.934000", "142921.935000", "142923.935000", "142926.433000", "142927.934000", "142929.934000", "142932.433000", "142933.933000", "142936.434000", "142937.934000", "142939.934000", "142941.934000", "142944.433000", "142945.932000", "142947.934000", "142949.935000", "142951.934000", "142953.935000", "142956.434000", "142957.934000", "142959.934000", "143001.935000", "143004.434000", "143005.934000", "143007.934000", "143009.934000", "143011.934000", "143013.934000", "143015.935000", "143017.935000", "143019.934000", "143021.933000", "143023.934000", "143025.934000", "143027.934000", "143029.934000", "143031.934000", "143033.934000", "143035.934000", "143037.934000", "143039.934000", "143041.935000", "143044.434000", "143045.934000", "143047.934000", "143049.934000", "143051.934000", "143053.935000", "143055.934000", "143057.934000", "143059.935000", "143101.934000", "143103.934000", "143105.934000", "143107.935000", "143109.934000", "143111.934000", "143113.934000", "143115.934000", "143117.933000", "143119.934000", "143121.934000", "143123.934000", "143126.434000", "143127.933000", "143130.434000", "143131.934000", "143133.934000", "143135.934000", "143137.934000", "143139.934000", "143141.934000", "143143.934000", "143145.934000", "143147.934000", "143149.934000", "143151.935000", "143153.934000", "143155.934000", "143157.934000", "143159.934000", "143201.934000", "143203.933000", "143205.934000", "143207.932000", "143209.933000", "143212.433000", "143213.934000", "143215.934000", "143217.934000", "143220.434000", "143221.934000", "143223.934000", "143225.934000", "143227.935000", "143229.934000", "143231.934000", "143233.934000", "143235.934000", "143237.934000", "143239.935000", "143241.934000", "143243.934000", "143245.934000", "143248.433000", "143249.933000", "143251.934000", "143253.935000", "143256.434000", "143257.934000", "143259.934000", "143301.935000", "143303.934000", "143305.934000", "143307.935000", "143309.886000"],
      "InstanceNumber": [1, 2, 3, 4, 5, 6, 7, 8, 9, 10, 11, 12, 13, 14, 15, 16, 17, 18, 19, 20, 21, 22, 23, 24, 25, 26, 27, 28, 29, 30, 31, 32, 33, 34, 35, 36, 37, 38, 39, 40, 41, 42, 43, 44, 45, 46, 47, 48, 49, 50, 51, 52, 53, 54, 55, 56, 57, 58, 59, 60, 61, 62, 63, 64, 65, 66, 67, 68, 69, 70, 71, 72, 73, 74, 75, 76, 77, 78, 79, 80, 81, 82, 83, 84, 85, 86, 87, 88, 89, 90, 91, 92, 93, 94, 95, 96, 97, 98, 99, 100, 101, 102, 103, 104, 105, 106, 107, 108, 109, 110, 111, 112, 113, 114, 115, 116, 117, 118, 119, 120, 121, 122, 123, 124, 125, 126, 127, 128, 129, 130, 131, 132, 133, 134, 135, 136, 137, 138, 139, 140, 141, 142, 143, 144, 145, 146, 147, 148, 149, 150, 151, 152, 153, 154, 155, 156, 157, 158, 159, 160, 161, 162, 163, 164, 165, 166, 167, 168, 169, 170, 171, 172, 173, 174, 175, 176, 177, 178, 179, 180, 181, 182, 183, 184, 185, 186, 187, 188, 189, 190, 191, 192, 193, 194, 195, 196, 197, 198, 199, 200, 201, 202, 203, 204, 205, 206, 207, 208, 209, 210, 211, 212, 213, 214, 215, 216, 217, 218],
      "WindowCenter": [15892.0, 15882.0, 15893.0, 15917.0, 15896.0, 15901.0, 15886.0, 15895.0, 15872.0, 15892.0, 15873.0, 15878.0, 15885.0, 15877.0, 15883.0, 15868.0, 15872.0, 15909.0, 15881.0, 15879.0, 15889.0, 15883.0, 15876.0, 15886.0, 15906.0, 15886.0, 15885.0, 15849.0, 15863.0, 15875.0, 15888.0, 15893.0, 15876.0, 15858.0, 15872.0, 15870.0, 15868.0, 15880.0, 15874.0, 15862.0, 15871.0, 15867.0, 15855.0, 15857.0, 15865.0, 15871.0, 15886.0, 15858.0, 15868.0, 15877.0, 15875.0, 15887.0, 15870.0, 15879.0, 15876.0, 15883.0, 15861.0, 15869.0, 15888.0, 15882.0, 15871.0, 15869.0, 15870.0, 15857.0, 15867.0, 15860.0, 15863.0, 15884.0, 15866.0, 15865.0, 15880.0, 15878.0, 15872.0, 15880.0, 15870.0, 15879.0, 15886.0, 15883.0, 15877.0, 15891.0, 15884.0, 15871.0, 15874.0, 15887.0, 15891.0, 15859.0, 15893.0, 15881.0, 15874.0, 15887.0, 15863.0, 15860.0, 15864.0, 15874.0, 15873.0, 15862.0, 15858.0, 15870.0, 15870.0, 15872.0, 15890.0, 15877.0, 15883.0, 15891.0, 15899.0, 15886.0, 15885.0, 15864.0, 15900.0, 15893.0, 15869.0, 15875.0, 15860.0, 15848.0, 15881.0, 15857.0, 15854.0, 15877.0, 15852.0, 15857.0, 15878.0, 15872.0, 15891.0, 15885.0, 15873.0, 15885.0, 15888.0, 15884.0, 15871.0, 15886.0, 15895.0, 15893.0, 15861.0, 15866.0, 15920.0, 15903.0, 15893.0, 15888.0, 15879.0, 15874.0, 15896.0, 15890.0, 15866.0, 15872.0, 15861.0, 15866.0, 15870.0, 15880.0, 15876.0, 15861.0, 15841.0, 15865.0, 15892.0, 15903.0, 15890.0, 15868.0, 15871.0, 15865.0, 15856.0, 15852.0, 15870.0, 15856.0, 15875.0, 15889.0, 15893.0, 15892.0, 15885.0, 15874.0, 15889.0, 15883.0, 15868.0, 15883.0, 15877.0, 15863.0, 15870.0, 15873.0, 15848.0, 15884.0, 15859.0, 15861.0, 15870.0, 15868.0, 15862.0, 15845.0, 15864.0, 15882.0, 15863.0, 15865.0, 15877.0, 15860.0, 15891.0, 15874.0, 15877.0, 15871.0, 15889.0, 15882.0, 15876.0, 15888.0, 15876.0, 15879.0, 15879.0, 15847.0, 15857.0, 15868.0, 15870.0, 15890.0, 15869.0, 15887.0, 15884.0, 15906.0, 15884.0, 15890.0, 15882.0, 15861.0, 15865.0, 15877.0, 15898.0, 15874.0],
      "WindowWidth": [46700.0, 46680.0, 46715.0, 46710.0, 46681.0, 46657.0, 46658.0, 46636.0, 46646.0, 46581.0, 46539.0, 46582.0, 46574.0, 46582.0, 46572.0, 46547.0, 46594.0, 46609.0, 46531.0, 46435.0, 46418.0, 46442.0, 46530.0, 46618.0, 46540.0, 46419.0, 46350.0, 46349.0, 46439.0, 46500.0, 46499.0, 46486.0, 46447.0, 46447.0, 46456.0, 46456.0, 46454.0, 46463.0, 46484.0, 46503.0, 46456.0, 46481.0, 46472.0, 46461.0, 46493.0, 46524.0, 46469.0, 46462.0, 46522.0, 46531.0, 46609.0, 46560.0, 46468.0, 46437.0, 46449.0, 46481.0, 46503.0, 46523.0, 46471.0, 46414.0, 46432.0, 46457.0, 46498.0, 46527.0, 46521.0, 46532.0, 46503.0, 46480.0, 46493.0, 46492.0, 46478.0, 46489.0, 46485.0, 46438.0, 46510.0, 46531.0, 46507.0, 46452.0, 46462.0, 46459.0, 46495.0, 46564.0, 46540.0, 46497.0, 46445.0, 46477.0, 46490.0, 46493.0, 46527.0, 46523.0, 46517.0, 46542.0, 46585.0, 46605.0, 46646.0, 46609.0, 46538.0, 46508.0, 46456.0, 46418.0, 46446.0, 46489.0, 46560.0, 46621.0, 46586.0, 46550.0, 46548.0, 46584.0, 46493.0, 46368.0, 46334.0, 46327.0, 46367.0, 46401.0, 46452.0, 46487.0, 46523.0, 46528.0, 46469.0, 46417.0, 46423.0, 46487.0, 46489.0, 46497.0, 46542.0, 46563.0, 46510.0, 46439.0, 46456.0, 46456.0, 46504.0, 46489.0, 46449.0, 46442.0, 46470.0, 46419.0, 46383.0, 46380.0, 46451.0, 46499.0, 46463.0, 46444.0, 46428.0, 46471.0, 46489.0, 46507.0, 46455.0, 46397.0, 46474.0, 46558.0, 46566.0, 46519.0, 46476.0, 46473.0, 46459.0, 46479.0, 46430.0, 46384.0, 46405.0, 46483.0, 46535.0, 46552.0, 46568.0, 46539.0, 46461.0, 46394.0, 46428.0, 46487.0, 46513.0, 46523.0, 46496.0, 46454.0, 46450.0, 46477.0, 46472.0, 46459.0, 46442.0, 46456.0, 46447.0, 46434.0, 46455.0, 46386.0, 46367.0, 46435.0, 46464.0, 46479.0, 46517.0, 46571.0, 46569.0, 46529.0, 46566.0, 46593.0, 46540.0, 46536.0, 46497.0, 46465.0, 46502.0, 46471.0, 46460.0, 46518.0, 46532.0, 46478.0, 46404.0, 46429.0, 46444.0, 46419.0, 46457.0, 46486.0, 46511.0, 46528.0, 46522.0, 46472.0, 46481.0, 46478.0, 46478.0, 46479.0, 46479.0, 46502.0]
    },
    "slices": {}
  }
}