{
  "AcquisitionMatrixPE": 116,
  "AcquisitionNumber": 1,
  "AcquisitionTime": "12:25:39.805000",
  "BandwidthPerPixelPhaseEncode": 18.539,
  "BaseResolution": 116,
  "BodyPartExamined": "HEAD",
  "ConsistencyInfo": "N4_VD13D_LATEST_20130810",
  "ConversionSoftware": "dcm2niix",
  "ConversionSoftwareVersion": "v1.0.20190410  (JP2:OpenJPEG) (JP-LS:CharLS) GCC5.5.0",
  "DerivedVendorReportedEchoSpacing": 0.000930006,
  "DeviceSerialNumber": "66014",
  "DwellTime": 3e-06,
  "EchoTime": 0.03,
  "EchoTrainLength": 50,
  "EffectiveEchoSpacing": 0.000465003,
  "FlipAngle": 81,
  "ImageComments": "Unaliased_MB3_PE4",
  "ImageOrientationPatientDICOM": [0.99742, -0.0635174, 0.0334467, 0.0697463, 0.967734, -0.24213],
  "ImageType": [
    "ORIGINAL",
    "PRIMARY",
    "M",
    "MB",
    "ND",
    "MOSAIC"
],
  "ImagingFrequency": 123.261,
  "InPlanePhaseEncodingDirectionDICOM": "COL",
  "InstitutionAddress": "Yiheyuan_Road_5_Beijing_Haidian_CN_100871",
  "InstitutionName": "Peking_Univeristy",
  "InstitutionalDepartmentName": "Department",
  "MRAcquisitionType": "2D",
  "MagneticFieldStrength": 3,
  "Manufacturer": "Siemens",
  "ManufacturersModelName": "Prisma",
  "Modality": "MR",
  "MultibandAccelerationFactor": 3,
  "ParallelReductionFactorInPlane": 2,
  "PartialFourier": 0.875,
  "PatientPosition": "HFS",
  "PercentPhaseFOV": 100,
  "PhaseEncodingDirection": "j-",
  "PhaseEncodingSteps": 101,
  "PhaseResolution": 1,
  "PixelBandwidth": 1435,
  "ProcedureStepDescription": "Research_Projects_64CH",
  "ProtocolName": "mbep2d_bold_MB3_learn1",
  "PulseSequenceDetails": "%CustomerSeq%_cmrr_mbep2d_bold",
  "ReceiveCoilActiveElements": "HC1-7;NC1",
  "ReceiveCoilName": "HeadNeck_64",
  "ReconMatrixPE": 116,
  "RefLinesPE": 44,
  "RepetitionTime": 2,
  "SAR": 0.0583865,
  "ScanOptions": "PFP_FS",
  "ScanningSequence": "EP",
  "SequenceName": "epfid2d1_116",
  "SequenceVariant": "SK_SS",
  "SeriesDescription": "mbep2d_bold_MB3_learn1",
  "SeriesNumber": 6,
  "ShimSetting": [-3458, -2090, -1968, 347, -52, -171, 37, 47],
  "SliceThickness": 1.9,
  "SliceTiming": [0, 0.9075, 1.815, 0.7425, 1.65, 0.5775, 1.485, 0.4125, 1.32, 0.2475, 1.155, 0.0825, 0.99, 1.8975, 0.825, 1.7325, 0.66, 1.5675, 0.495, 1.4025, 0.33, 1.2375, 0.165, 1.0725, 0, 0.9075, 1.815, 0.7425, 1.65, 0.5775, 1.485, 0.4125, 1.32, 0.2475, 1.155, 0.0825, 0.99, 1.8975, 0.825, 1.7325, 0.66, 1.5675, 0.495, 1.4025, 0.33, 1.2375, 0.165, 1.0725, 0, 0.9075, 1.815, 0.7425, 1.65, 0.5775, 1.485, 0.4125, 1.32, 0.2475, 1.155, 0.0825, 0.99, 1.8975, 0.825, 1.7325, 0.66, 1.5675, 0.495, 1.4025, 0.33, 1.2375, 0.165, 1.0725],
  "SoftwareVersions": "syngo_MR_D13D",
  "SpacingBetweenSlices": 1.9,
  "StationName": "AWP66014",
  "TaskName": "updating",
  "TotalReadoutTime": 0.0534753,
  "TxRefAmp": 220.68,
  "WipMemBlock": "85614ee2-c827-4f79-8dd4-6ad32528ec57||Sequence: vd13d/master r/0735857; Nov 19 2014 09:21:40 by eja",
  "dcmmeta_affine": [
    [-1.8916587829589844, 0.13227756321430206, 0.03227730840444565, 102.43553924560547],
    [0.12046407163143158, 1.8353569507598877, -0.4632927477359772, -90.94318389892578],
    [0.06343348324298859, 0.45921239256858826, 1.8423675298690796, -114.22114562988281],
    [0.0, 0.0, 0.0, 1.0]
],
  "dcmmeta_reorient_transform": [
    [0.0, -1.0, 0.0, 115.0],
    [1.0, 0.0, 0.0, 0.0],
    [0.0, 0.0, 1.0, 0.0],
    [0.0, 0.0, 0.0, 1.0]
],
  "dcmmeta_shape": [116, 116, 72, 218],
  "dcmmeta_slice_dim": 2,
  "dcmmeta_version": 0.6,
  "global": {
    "const": {
      "AcquisitionMatrix": [116, 0, 0, 116],
      "AngioFlag": "N",
      "BitsAllocated": 16,
      "BitsStored": 16,
      "BodyPartExamined": "HEAD",
      "Columns": 1044,
      "EchoNumbers": 1,
      "EchoTime": 30.0,
      "EchoTrainLength": 50,
      "FlipAngle": 81.0,
      "HighBit": 15,
      "ImageOrientationPatient": [0.99742009843728, -0.0635174190687, 0.03344674435915, 0.06974634865739, 0.96773365653115, -0.2421301651299],
      "ImagePositionPatient": [-1056.7539342862, -915.83315753345, 122.22968942778],
      "ImageType": [
        "ORIGINAL",
        "PRIMARY",
        "M",
        "MB",
        "ND",
        "MOSAIC"
],
      "ImagedNucleus": "1H",
      "ImagingFrequency": 123.260574,
      "InPlanePhaseEncodingDirection": "COL",
      "LargestImagePixelValue": 65535,
      "MRAcquisitionType": "2D",
      "MagneticFieldStrength": 3.0,
      "Manufacturer": "SIEMENS",
      "ManufacturerModelName": "Prisma",
      "Modality": "MR",
      "NumberOfAverages": 1.0,
      "NumberOfPhaseEncodingSteps": 101,
      "PercentPhaseFieldOfView": 100.0,
      "PercentSampling": 100.0,
      "PerformedProcedureStepStartTime": "120732.769000",
      "PhotometricInterpretation": "MONOCHROME2",
      "PixelBandwidth": 1435.0,
      "PixelRepresentation": 0,
      "PixelSpacing": [1.8965517282486, 1.8965517282486],
      "ProtocolName": "mbep2d_bold_MB3_learn1",
      "RepetitionTime": 2000.0,
      "Rows": 1044,
      "SAR": 0.05838655076209,
      "SamplesPerPixel": 1,
      "ScanOptions": [
        "PFP",
        "FS"
],
      "ScanningSequence": "EP",
      "SequenceName": "epfid2d1_116",
      "SequenceVariant": [
        "SK",
        "SS"
],
      "SeriesDescription": "mbep2d_bold_MB3_learn1",
      "SeriesNumber": 6,
      "SeriesTime": "122556.862000",
      "SliceLocation": -86.840877749177,
      "SliceThickness": 1.8999999761581,
      "SmallestImagePixelValue": 0,
      "SoftwareVersions": "syngo MR D13D",
      "SpacingBetweenSlices": 1.9000000706293,
      "SpecificCharacterSet": "ISO_IR 100",
      "StudyID": "1",
      "StudyTime": "120732.670000",
      "TimeOfLastCalibration": ["123723.000000", "123723.000000"],
      "TransmitCoilName": "Body",
      "VariableFlipAngleFlag": "N",
      "WindowCenterWidthExplanation": "Algo1",
      "dBdt": 0.0},
    "slices": {}
  },
  "time": {
    "samples": {
      "AcquisitionNumber": [1, 2, 3, 4, 5, 6, 7, 8, 9, 10, 11, 12, 13, 14, 15, 16, 17, 18, 19, 20, 21, 22, 23, 24, 25, 26, 27, 28, 29, 30, 31, 32, 33, 34, 35, 36, 37, 38, 39, 40, 41, 42, 43, 44, 45, 46, 47, 48, 49, 50, 51, 52, 53, 54, 55, 56, 57, 58, 59, 60, 61, 62, 63, 64, 65, 66, 67, 68, 69, 70, 71, 72, 73, 74, 75, 76, 77, 78, 79, 80, 81, 82, 83, 84, 85, 86, 87, 88, 89, 90, 91, 92, 93, 94, 95, 96, 97, 98, 99, 100, 101, 102, 103, 104, 105, 106, 107, 108, 109, 110, 111, 112, 113, 114, 115, 116, 117, 118, 119, 120, 121, 122, 123, 124, 125, 126, 127, 128, 129, 130, 131, 132, 133, 134, 135, 136, 137, 138, 139, 140, 141, 142, 143, 144, 145, 146, 147, 148, 149, 150, 151, 152, 153, 154, 155, 156, 157, 158, 159, 160, 161, 162, 163, 164, 165, 166, 167, 168, 169, 170, 171, 172, 173, 174, 175, 176, 177, 178, 179, 180, 181, 182, 183, 184, 185, 186, 187, 188, 189, 190, 191, 192, 193, 194, 195, 196, 197, 198, 199, 200, 201, 202, 203, 204, 205, 206, 207, 208, 209, 210, 211, 212, 213, 214, 215, 216, 217, 218],
      "AcquisitionTime": ["122539.805000", "122541.805000", "122543.805000", "122545.805000", "122547.805000", "122549.805000", "122551.805000", "122553.805000", "122555.805000", "122557.805000", "122559.805000", "122601.805000", "122603.805000", "122605.805000", "122607.805000", "122609.805000", "122611.805000", "122613.805000", "122615.805000", "122617.805000", "122619.805000", "122621.805000", "122623.805000", "122625.805000", "122627.805000", "122629.805000", "122631.805000", "122633.805000", "122635.805000", "122637.805000", "122639.805000", "122641.805000", "122643.805000", "122645.805000", "122647.805000", "122649.805000", "122651.805000", "122653.805000", "122655.805000", "122657.805000", "122659.805000", "122701.805000", "122703.805000", "122705.805000", "122707.805000", "122709.805000", "122711.805000", "122713.805000", "122715.805000", "122717.805000", "122719.805000", "122721.805000", "122723.805000", "122725.805000", "122727.805000", "122729.805000", "122731.805000", "122733.805000", "122735.805000", "122737.805000", "122739.805000", "122741.805000", "122743.805000", "122745.805000", "122747.805000", "122749.805000", "122751.805000", "122753.805000", "122755.805000", "122757.805000", "122759.805000", "122801.805000", "122803.805000", "122805.807500", "122807.807500", "122809.807500", "122811.807500", "122813.807500", "122815.807500", "122817.807500", "122819.807500", "122821.807500", "122823.807500", "122825.807500", "122827.807500", "122829.807500", "122831.807500", "122833.807500", "122835.807500", "122837.807500", "122839.807500", "122841.807500", "122843.807500", "122845.807500", "122847.807500", "122849.807500", "122851.807500", "122853.807500", "122855.807500", "122857.807500", "122859.807500", "122901.807500", "122903.807500", "122905.807500", "122907.807500", "122909.807500", "122911.807500", "122913.807500", "122915.807500", "122917.807500", "122919.807500", "122921.807500", "122923.807500", "122925.807500", "122927.807500", "122929.807500", "122931.807500", "122933.807500", "122935.807500", "122937.807500", "122939.807500", "122941.807500", "122943.807500", "122945.807500", "122947.807500", "122949.807500", "122951.807500", "122953.807500", "122955.807500", "122957.807500", "122959.807500", "123001.807500", "123003.807500", "123005.807500", "123007.807500", "123009.807500", "123011.807500", "123013.807500", "123015.807500", "123017.807500", "123019.807500", "123021.807500", "123023.807500", "123025.807500", "123027.807500", "123029.807500", "123031.807500", "123033.807500", "123035.807500", "123037.807500", "123039.807500", "123041.807500", "123043.807500", "123045.807500", "123047.807500", "123049.807500", "123051.807500", "123053.807500", "123055.807500", "123057.807500", "123059.807500", "123101.807500", "123103.807500", "123105.807500", "123107.807500", "123109.807500", "123111.807500", "123113.807500", "123115.807500", "123117.807500", "123119.807500", "123121.807500", "123123.807500", "123125.807500", "123127.807500", "123129.807500", "123131.807500", "123133.807500", "123135.807500", "123137.807500", "123139.807500", "123141.807500", "123143.807500", "123145.807500", "123147.807500", "123149.807500", "123151.807500", "123153.807500", "123155.807500", "123157.807500", "123159.807500", "123201.807500", "123203.807500", "123205.807500", "123207.807500", "123209.807500", "123211.807500", "123213.807500", "123215.807500", "123217.807500", "123219.807500", "123221.807500", "123223.807500", "123225.807500", "123227.807500", "123229.807500", "123231.807500", "123233.807500", "123235.807500", "123237.807500", "123239.807500", "123241.807500", "123243.807500", "123245.807500", "123247.807500", "123249.807500", "123251.807500", "123253.807500"],
      "ContentTime": ["122556.868000", "122557.861000", "122558.860000", "122559.862000", "122559.866000", "122600.861000", "122601.861000", "122602.862000", "122603.861000", "122604.861000", "122605.862000", "122605.866000", "122606.861000", "122608.362000", "122610.362000", "122612.361000", "122614.362000", "122616.361000", "122618.361000", "122620.360000", "122622.361000", "122624.361000", "122626.362000", "122628.362000", "122630.362000", "122632.362000", "122634.361000", "122636.362000", "122638.362000", "122640.362000", "122642.362000", "122644.362000", "122646.362000", "122648.362000", "122650.362000", "122652.363000", "122654.362000", "122656.361000", "122658.361000", "122700.363000", "122702.362000", "122704.361000", "122706.362000", "122708.362000", "122710.362000", "122712.362000", "122714.362000", "122716.361000", "122718.362000", "122720.362000", "122722.362000", "122724.362000", "122726.362000", "122728.362000", "122730.362000", "122732.362000", "122734.362000", "122736.363000", "122738.362000", "122740.362000", "122742.362000", "122744.361000", "122746.362000", "122748.362000", "122750.362000", "122752.362000", "122754.361000", "122756.362000", "122758.362000", "122800.362000", "122802.362000", "122804.362000", "122806.362000", "122808.362000", "122810.362000", "122812.362000", "122814.362000", "122816.363000", "122818.362000", "122820.362000", "122822.363000", "122824.362000", "122826.361000", "122828.360000", "122830.362000", "122832.363000", "122834.362000", "122836.361000", "122838.362000", "122840.362000", "122842.362000", "122844.362000", "122846.363000", "122848.361000", "122850.362000", "122852.362000", "122854.361000", "122856.363000", "122858.362000", "122900.362000", "122902.362000", "122904.362000", "122906.362000", "122908.362000", "122910.360000", "122912.362000", "122914.362000", "122916.362000", "122918.362000", "122920.362000", "122922.362000", "122924.362000", "122926.362000", "122928.362000", "122930.362000", "122932.362000", "122934.362000", "122936.362000", "122938.362000", "122940.362000", "122942.362000", "122944.361000", "122946.361000", "122948.363000", "122950.362000", "122952.361000", "122954.361000", "122956.362000", "122958.362000", "123000.361000", "123002.362000", "123004.361000", "123006.362000", "123008.362000", "123010.362000", "123012.362000", "123014.362000", "123016.363000", "123018.363000", "123020.361000", "123022.361000", "123024.363000", "123026.362000", "123028.362000", "123030.362000", "123032.362000", "123034.362000", "123036.362000", "123038.362000", "123040.362000", "123042.362000", "123044.362000", "123046.362000", "123048.362000", "123050.362000", "123052.361000", "123054.362000", "123056.361000", "123058.363000", "123100.362000", "123102.362000", "123104.361000", "123106.362000", "123108.363000", "123110.363000", "123112.362000", "123114.361000", "123116.362000", "123118.362000", "123120.362000", "123122.362000", "123124.362000", "123126.362000", "123128.362000", "123130.362000", "123132.362000", "123134.362000", "123136.361000", "123138.362000", "123140.362000", "123142.362000", "123144.362000", "123146.362000", "123148.362000", "123150.362000", "123152.363000", "123154.362000", "123156.363000", "123158.362000", "123200.362000", "123202.363000", "123204.362000", "123206.361000", "123208.362000", "123210.362000", "123212.362000", "123214.362000", "123216.362000", "123218.362000", "123220.363000", "123222.362000", "123224.362000", "123226.362000", "123228.362000", "123230.362000", "123232.361000", "123234.362000", "123236.362000", "123238.362000", "123240.368000", "123242.362000", "123244.362000", "123246.362000", "123248.362000", "123250.362000", "123252.362000", "123254.362000", "123256.050000"],
      "InstanceCreationTime": ["122556.868000", "122557.861000", "122558.860000", "122559.862000", "122559.866000", "122600.861000", "122601.861000", "122602.862000", "122603.861000", "122604.861000", "122605.862000", "122605.866000", "122606.861000", "122608.362000", "122610.362000", "122612.361000", "122614.362000", "122616.361000", "122618.361000", "122620.360000", "122622.361000", "122624.361000", "122626.362000", "122628.362000", "122630.362000", "122632.362000", "122634.361000", "122636.362000", "122638.362000", "122640.362000", "122642.362000", "122644.362000", "122646.362000", "122648.362000", "122650.362000", "122652.363000", "122654.362000", "122656.361000", "122658.361000", "122700.363000", "122702.362000", "122704.361000", "122706.362000", "122708.362000", "122710.362000", "122712.362000", "122714.362000", "122716.361000", "122718.362000", "122720.362000", "122722.362000", "122724.362000", "122726.362000", "122728.362000", "122730.362000", "122732.362000", "122734.362000", "122736.363000", "122738.362000", "122740.362000", "122742.362000", "122744.361000", "122746.362000", "122748.362000", "122750.362000", "122752.362000", "122754.361000", "122756.362000", "122758.362000", "122800.362000", "122802.362000", "122804.362000", "122806.362000", "122808.362000", "122810.362000", "122812.362000", "122814.362000", "122816.363000", "122818.362000", "122820.362000", "122822.363000", "122824.362000", "122826.361000", "122828.360000", "122830.362000", "122832.363000", "122834.362000", "122836.361000", "122838.362000", "122840.362000", "122842.362000", "122844.362000", "122846.363000", "122848.361000", "122850.362000", "122852.362000", "122854.361000", "122856.363000", "122858.362000", "122900.362000", "122902.362000", "122904.362000", "122906.362000", "122908.362000", "122910.360000", "122912.362000", "122914.362000", "122916.362000", "122918.362000", "122920.362000", "122922.362000", "122924.362000", "122926.362000", "122928.362000", "122930.362000", "122932.362000", "122934.362000", "122936.362000", "122938.362000", "122940.362000", "122942.362000", "122944.361000", "122946.361000", "122948.363000", "122950.362000", "122952.361000", "122954.361000", "122956.362000", "122958.362000", "123000.361000", "123002.362000", "123004.361000", "123006.362000", "123008.362000", "123010.362000", "123012.362000", "123014.362000", "123016.363000", "123018.363000", "123020.361000", "123022.361000", "123024.363000", "123026.362000", "123028.362000", "123030.362000", "123032.362000", "123034.362000", "123036.362000", "123038.362000", "123040.362000", "123042.362000", "123044.362000", "123046.362000", "123048.362000", "123050.362000", "123052.361000", "123054.362000", "123056.361000", "123058.363000", "123100.362000", "123102.362000", "123104.361000", "123106.362000", "123108.363000", "123110.363000", "123112.362000", "123114.361000", "123116.362000", "123118.362000", "123120.362000", "123122.362000", "123124.362000", "123126.362000", "123128.362000", "123130.362000", "123132.362000", "123134.362000", "123136.361000", "123138.362000", "123140.362000", "123142.362000", "123144.362000", "123146.362000", "123148.362000", "123150.362000", "123152.363000", "123154.362000", "123156.363000", "123158.362000", "123200.362000", "123202.363000", "123204.362000", "123206.361000", "123208.362000", "123210.362000", "123212.362000", "123214.362000", "123216.362000", "123218.362000", "123220.363000", "123222.362000", "123224.362000", "123226.362000", "123228.362000", "123230.362000", "123232.361000", "123234.362000", "123236.362000", "123238.362000", "123240.368000", "123242.362000", "123244.362000", "123246.362000", "123248.362000", "123250.362000", "123252.362000", "123254.362000", "123256.050000"],
      "InstanceNumber": [1, 2, 3, 4, 5, 6, 7, 8, 9, 10, 11, 12, 13, 14, 15, 16, 17, 18, 19, 20, 21, 22, 23, 24, 25, 26, 27, 28, 29, 30, 31, 32, 33, 34, 35, 36, 37, 38, 39, 40, 41, 42, 43, 44, 45, 46, 47, 48, 49, 50, 51, 52, 53, 54, 55, 56, 57, 58, 59, 60, 61, 62, 63, 64, 65, 66, 67, 68, 69, 70, 71, 72, 73, 74, 75, 76, 77, 78, 79, 80, 81, 82, 83, 84, 85, 86, 87, 88, 89, 90, 91, 92, 93, 94, 95, 96, 97, 98, 99, 100, 101, 102, 103, 104, 105, 106, 107, 108, 109, 110, 111, 112, 113, 114, 115, 116, 117, 118, 119, 120, 121, 122, 123, 124, 125, 126, 127, 128, 129, 130, 131, 132, 133, 134, 135, 136, 137, 138, 139, 140, 141, 142, 143, 144, 145, 146, 147, 148, 149, 150, 151, 152, 153, 154, 155, 156, 157, 158, 159, 160, 161, 162, 163, 164, 165, 166, 167, 168, 169, 170, 171, 172, 173, 174, 175, 176, 177, 178, 179, 180, 181, 182, 183, 184, 185, 186, 187, 188, 189, 190, 191, 192, 193, 194, 195, 196, 197, 198, 199, 200, 201, 202, 203, 204, 205, 206, 207, 208, 209, 210, 211, 212, 213, 214, 215, 216, 217, 218],
      "WindowCenter": [15023.0, 14998.0, 14999.0, 15011.0, 15008.0, 15021.0, 15007.0, 15002.0, 15005.0, 15006.0, 14993.0, 15001.0, 15000.0, 14993.0, 15001.0, 14985.0, 14985.0, 14994.0, 14997.0, 14990.0, 14991.0, 15000.0, 14994.0, 14995.0, 14993.0, 14993.0, 14975.0, 14985.0, 15001.0, 15000.0, 14996.0, 14992.0, 14989.0, 14996.0, 14995.0, 14997.0, 15004.0, 14997.0, 15000.0, 14999.0, 14991.0, 14992.0, 14996.0, 14996.0, 15004.0, 14996.0, 14997.0, 14999.0, 14983.0, 14991.0, 14994.0, 14992.0, 14993.0, 14985.0, 14988.0, 14994.0, 14991.0, 14992.0, 14987.0, 14991.0, 14983.0, 14986.0, 14986.0, 14997.0, 14981.0, 14992.0, 14987.0, 14998.0, 15000.0, 14997.0, 14991.0, 14989.0, 14988.0, 14986.0, 14992.0, 14992.0, 14992.0, 14983.0, 14994.0, 14991.0, 14983.0, 14990.0, 14999.0, 14991.0, 14983.0, 14992.0, 14977.0, 14986.0, 14985.0, 14979.0, 14984.0, 14981.0, 15006.0, 14993.0, 14995.0, 14995.0, 14987.0, 14994.0, 14983.0, 14991.0, 14994.0, 14989.0, 14987.0, 14988.0, 15001.0, 14986.0, 14996.0, 14994.0, 14994.0, 14995.0, 14993.0, 14993.0, 14991.0, 14999.0, 15004.0, 14992.0, 14995.0, 15000.0, 14986.0, 14989.0, 14991.0, 14998.0, 14994.0, 14997.0, 14988.0, 14998.0, 14993.0, 15004.0, 15001.0, 14996.0, 14991.0, 14991.0, 14983.0, 15000.0, 15000.0, 15001.0, 14997.0, 14998.0, 15008.0, 15002.0, 15000.0, 14988.0, 15000.0, 14987.0, 14996.0, 14994.0, 14996.0, 14998.0, 14995.0, 15003.0, 14991.0, 14997.0, 15005.0, 15005.0, 15002.0, 15003.0, 14996.0, 15006.0, 14995.0, 14985.0, 14990.0, 15005.0, 15006.0, 14998.0, 14996.0, 15000.0, 14976.0, 14995.0, 15008.0, 15005.0, 14997.0, 15003.0, 15003.0, 15008.0, 14996.0, 14996.0, 15006.0, 15001.0, 15006.0, 14999.0, 15009.0, 14997.0, 15002.0, 15006.0, 15001.0, 15017.0, 15005.0, 15003.0, 15003.0, 14995.0, 15003.0, 14989.0, 14998.0, 15005.0, 15005.0, 15004.0, 14999.0, 15007.0, 15002.0, 15010.0, 15004.0, 15003.0, 15012.0, 15017.0, 14999.0, 15006.0, 14991.0, 15001.0, 15009.0, 14997.0, 15004.0, 14993.0, 14994.0, 15008.0, 15000.0, 15021.0, 15015.0, 15002.0],
      "WindowWidth": [41713.0, 41644.0, 41759.0, 41891.0, 41887.0, 41870.0, 41795.0, 41715.0, 41672.0, 41604.0, 41632.0, 41687.0, 41639.0, 41586.0, 41625.0, 41638.0, 41608.0, 41675.0, 41665.0, 41583.0, 41612.0, 41740.0, 41764.0, 41648.0, 41628.0, 41674.0, 41710.0, 41708.0, 41742.0, 41726.0, 41676.0, 41598.0, 41565.0, 41650.0, 41794.0, 41793.0, 41696.0, 41631.0, 41608.0, 41564.0, 41571.0, 41614.0, 41677.0, 41707.0, 41732.0, 41678.0, 41663.0, 41592.0, 41528.0, 41597.0, 41666.0, 41659.0, 41626.0, 41619.0, 41641.0, 41695.0, 41644.0, 41598.0, 41563.0, 41586.0, 41634.0, 41608.0, 41605.0, 41649.0, 41630.0, 41569.0, 41549.0, 41639.0, 41731.0, 41663.0, 41596.0, 41595.0, 41608.0, 41581.0, 41601.0, 41556.0, 41509.0, 41514.0, 41588.0, 41617.0, 41602.0, 41595.0, 41595.0, 41645.0, 41629.0, 41552.0, 41566.0, 41565.0, 41547.0, 41497.0, 41518.0, 41633.0, 41663.0, 41616.0, 41587.0, 41573.0, 41550.0, 41571.0, 41634.0, 41671.0, 41616.0, 41550.0, 41549.0, 41597.0, 41625.0, 41621.0, 41617.0, 41586.0, 41558.0, 41588.0, 41603.0, 41555.0, 41556.0, 41684.0, 41688.0, 41579.0, 41570.0, 41565.0, 41547.0, 41552.0, 41554.0, 41549.0, 41542.0, 41544.0, 41520.0, 41551.0, 41603.0, 41601.0, 41568.0, 41541.0, 41523.0, 41525.0, 41587.0, 41668.0, 41640.0, 41639.0, 41578.0, 41548.0, 41577.0, 41556.0, 41552.0, 41608.0, 41606.0, 41591.0, 41557.0, 41555.0, 41591.0, 41679.0, 41675.0, 41622.0, 41597.0, 41561.0, 41529.0, 41558.0, 41585.0, 41567.0, 41573.0, 41614.0, 41586.0, 41530.0, 41538.0, 41586.0, 41618.0, 41605.0, 41589.0, 41534.0, 41491.0, 41514.0, 41578.0, 41660.0, 41586.0, 41564.0, 41569.0, 41559.0, 41517.0, 41574.0, 41630.0, 41638.0, 41610.0, 41588.0, 41542.0, 41543.0, 41533.0, 41541.0, 41608.0, 41628.0, 41600.0, 41532.0, 41537.0, 41543.0, 41550.0, 41563.0, 41561.0, 41570.0, 41584.0, 41600.0, 41608.0, 41554.0, 41535.0, 41548.0, 41543.0, 41556.0, 41667.0, 41660.0, 41604.0, 41568.0, 41583.0, 41593.0, 41586.0, 41560.0, 41496.0, 41496.0, 41572.0, 41647.0, 41609.0, 41549.0, 41613.0, 41655.0]
    },
    "slices": {}
  }
}