{
  "AcquisitionMatrixPE": 116,
  "AcquisitionNumber": 1,
  "AcquisitionTime": "13:07:11.782500",
  "BandwidthPerPixelPhaseEncode": 18.539,
  "BaseResolution": 116,
  "BodyPartExamined": "HEAD",
  "ConsistencyInfo": "N4_VD13D_LATEST_20130810",
  "ConversionSoftware": "dcm2niix",
  "ConversionSoftwareVersion": "v1.0.20190410  (JP2:OpenJPEG) (JP-LS:CharLS) GCC5.5.0",
  "DerivedVendorReportedEchoSpacing": 0.000930006,
  "DeviceSerialNumber": "66014",
  "DwellTime": 3e-06,
  "EchoTime": 0.03,
  "EchoTrainLength": 50,
  "EffectiveEchoSpacing": 0.000465003,
  "FlipAngle": 81,
  "ImageComments": "Unaliased_MB3_PE4",
  "ImageOrientationPatientDICOM": [0.99742, -0.0635174, 0.0334467, 0.0697463, 0.967734, -0.24213],
  "ImageType": [
    "ORIGINAL",
    "PRIMARY",
    "M",
    "MB",
    "ND",
    "MOSAIC"
],
  "ImagingFrequency": 123.261,
  "InPlanePhaseEncodingDirectionDICOM": "COL",
  "InstitutionAddress": "Yiheyuan_Road_5_Beijing_Haidian_CN_100871",
  "InstitutionName": "Peking_Univeristy",
  "InstitutionalDepartmentName": "Department",
  "MRAcquisitionType": "2D",
  "MagneticFieldStrength": 3,
  "Manufacturer": "Siemens",
  "ManufacturersModelName": "Prisma",
  "Modality": "MR",
  "MultibandAccelerationFactor": 3,
  "ParallelReductionFactorInPlane": 2,
  "PartialFourier": 0.875,
  "PatientPosition": "HFS",
  "PercentPhaseFOV": 100,
  "PhaseEncodingDirection": "j-",
  "PhaseEncodingSteps": 101,
  "PhaseResolution": 1,
  "PixelBandwidth": 1435,
  "ProcedureStepDescription": "Research_Projects_64CH",
  "ProtocolName": "mbep2d_bold_MB3_learn6",
  "PulseSequenceDetails": "%CustomerSeq%_cmrr_mbep2d_bold",
  "ReceiveCoilActiveElements": "HC1-7;NC1",
  "ReceiveCoilName": "HeadNeck_64",
  "ReconMatrixPE": 116,
  "RefLinesPE": 44,
  "RepetitionTime": 2,
  "SAR": 0.0583865,
  "ScanOptions": "PFP_FS",
  "ScanningSequence": "EP",
  "SequenceName": "epfid2d1_116",
  "SequenceVariant": "SK_SS",
  "SeriesDescription": "mbep2d_bold_MB3_learn6",
  "SeriesNumber": 11,
  "ShimSetting": [-3458, -2090, -1968, 347, -52, -171, 37, 47],
  "SliceThickness": 1.9,
  "SliceTiming": [0, 0.9075, 1.815, 0.7425, 1.65, 0.5775, 1.485, 0.4125, 1.32, 0.2475, 1.155, 0.0825, 0.99, 1.8975, 0.825, 1.7325, 0.66, 1.5675, 0.495, 1.4025, 0.33, 1.2375, 0.165, 1.0725, 0, 0.9075, 1.815, 0.7425, 1.65, 0.5775, 1.485, 0.4125, 1.32, 0.2475, 1.155, 0.0825, 0.99, 1.8975, 0.825, 1.7325, 0.66, 1.5675, 0.495, 1.4025, 0.33, 1.2375, 0.165, 1.0725, 0, 0.9075, 1.815, 0.7425, 1.65, 0.5775, 1.485, 0.4125, 1.32, 0.2475, 1.155, 0.0825, 0.99, 1.8975, 0.825, 1.7325, 0.66, 1.5675, 0.495, 1.4025, 0.33, 1.2375, 0.165, 1.0725],
  "SoftwareVersions": "syngo_MR_D13D",
  "SpacingBetweenSlices": 1.9,
  "StationName": "AWP66014",
  "TaskName": "updating",
  "TotalReadoutTime": 0.0534753,
  "TxRefAmp": 220.68,
  "WipMemBlock": "d71aad30-053b-47b7-9c2b-10fcc3edbeb7||Sequence: vd13d/master r/0735857; Nov 19 2014 09:21:40 by eja",
  "dcmmeta_affine": [
    [-1.8916587829589844, 0.13227756321430206, 0.03227730840444565, 102.43553924560547],
    [0.12046407163143158, 1.8353569507598877, -0.4632927477359772, -90.94318389892578],
    [0.06343348324298859, 0.45921239256858826, 1.8423675298690796, -114.22114562988281],
    [0.0, 0.0, 0.0, 1.0]
],
  "dcmmeta_reorient_transform": [
    [0.0, -1.0, 0.0, 115.0],
    [1.0, 0.0, 0.0, 0.0],
    [0.0, 0.0, 1.0, 0.0],
    [0.0, 0.0, 0.0, 1.0]
],
  "dcmmeta_shape": [116, 116, 72, 218],
  "dcmmeta_slice_dim": 2,
  "dcmmeta_version": 0.6,
  "global": {
    "const": {
      "AcquisitionMatrix": [116, 0, 0, 116],
      "AngioFlag": "N",
      "BitsAllocated": 16,
      "BitsStored": 16,
      "BodyPartExamined": "HEAD",
      "Columns": 1044,
      "EchoNumbers": 1,
      "EchoTime": 30.0,
      "EchoTrainLength": 50,
      "FlipAngle": 81.0,
      "HighBit": 15,
      "ImageOrientationPatient": [0.99742009843728, -0.0635174190687, 0.03344674435915, 0.06974634865739, 0.96773365653115, -0.2421301651299],
      "ImagePositionPatient": [-1056.7539342862, -915.83315753345, 122.22968942778],
      "ImageType": [
        "ORIGINAL",
        "PRIMARY",
        "M",
        "MB",
        "ND",
        "MOSAIC"
],
      "ImagedNucleus": "1H",
      "ImagingFrequency": 123.260578,
      "InPlanePhaseEncodingDirection": "COL",
      "LargestImagePixelValue": 65535,
      "MRAcquisitionType": "2D",
      "MagneticFieldStrength": 3.0,
      "Manufacturer": "SIEMENS",
      "ManufacturerModelName": "Prisma",
      "Modality": "MR",
      "NumberOfAverages": 1.0,
      "NumberOfPhaseEncodingSteps": 101,
      "PercentPhaseFieldOfView": 100.0,
      "PercentSampling": 100.0,
      "PerformedProcedureStepStartTime": "120732.769000",
      "PhotometricInterpretation": "MONOCHROME2",
      "PixelBandwidth": 1435.0,
      "PixelRepresentation": 0,
      "PixelSpacing": [1.8965517282486, 1.8965517282486],
      "ProtocolName": "mbep2d_bold_MB3_learn6",
      "RepetitionTime": 2000.0,
      "Rows": 1044,
      "SAR": 0.05838655077811,
      "SamplesPerPixel": 1,
      "ScanOptions": [
        "PFP",
        "FS"
],
      "ScanningSequence": "EP",
      "SequenceName": "epfid2d1_116",
      "SequenceVariant": [
        "SK",
        "SS"
],
      "SeriesDescription": "mbep2d_bold_MB3_learn6",
      "SeriesNumber": 11,
      "SeriesTime": "130729.655000",
      "SliceLocation": -86.840877749177,
      "SliceThickness": 1.8999999761581,
      "SmallestImagePixelValue": 0,
      "SoftwareVersions": "syngo MR D13D",
      "SpacingBetweenSlices": 1.9000000706293,
      "SpecificCharacterSet": "ISO_IR 100",
      "StudyID": "1",
      "StudyTime": "120732.670000",
      "TimeOfLastCalibration": ["123723.000000", "123723.000000"],
      "TransmitCoilName": "Body",
      "VariableFlipAngleFlag": "N",
      "WindowCenterWidthExplanation": "Algo1",
      "dBdt": 0.0},
    "slices": {}
  },
  "time": {
    "samples": {
      "AcquisitionNumber": [1, 2, 3, 4, 5, 6, 7, 8, 9, 10, 11, 12, 13, 14, 15, 16, 17, 18, 19, 20, 21, 22, 23, 24, 25, 26, 27, 28, 29, 30, 31, 32, 33, 34, 35, 36, 37, 38, 39, 40, 41, 42, 43, 44, 45, 46, 47, 48, 49, 50, 51, 52, 53, 54, 55, 56, 57, 58, 59, 60, 61, 62, 63, 64, 65, 66, 67, 68, 69, 70, 71, 72, 73, 74, 75, 76, 77, 78, 79, 80, 81, 82, 83, 84, 85, 86, 87, 88, 89, 90, 91, 92, 93, 94, 95, 96, 97, 98, 99, 100, 101, 102, 103, 104, 105, 106, 107, 108, 109, 110, 111, 112, 113, 114, 115, 116, 117, 118, 119, 120, 121, 122, 123, 124, 125, 126, 127, 128, 129, 130, 131, 132, 133, 134, 135, 136, 137, 138, 139, 140, 141, 142, 143, 144, 145, 146, 147, 148, 149, 150, 151, 152, 153, 154, 155, 156, 157, 158, 159, 160, 161, 162, 163, 164, 165, 166, 167, 168, 169, 170, 171, 172, 173, 174, 175, 176, 177, 178, 179, 180, 181, 182, 183, 184, 185, 186, 187, 188, 189, 190, 191, 192, 193, 194, 195, 196, 197, 198, 199, 200, 201, 202, 203, 204, 205, 206, 207, 208, 209, 210, 211, 212, 213, 214, 215, 216, 217, 218],
      "AcquisitionTime": ["130711.782500", "130713.782500", "130715.785000", "130717.785000", "130719.785000", "130721.785000", "130723.785000", "130725.785000", "130727.785000", "130729.785000", "130731.785000", "130733.785000", "130735.785000", "130737.785000", "130739.785000", "130741.785000", "130743.785000", "130745.785000", "130747.785000", "130749.785000", "130751.785000", "130753.785000", "130755.785000", "130757.785000", "130759.785000", "130801.785000", "130803.785000", "130805.785000", "130807.785000", "130809.785000", "130811.785000", "130813.785000", "130815.785000", "130817.785000", "130819.785000", "130821.785000", "130823.785000", "130825.785000", "130827.785000", "130829.785000", "130831.785000", "130833.785000", "130835.785000", "130837.785000", "130839.785000", "130841.785000", "130843.785000", "130845.785000", "130847.785000", "130849.785000", "130851.785000", "130853.785000", "130855.785000", "130857.785000", "130859.785000", "130901.785000", "130903.785000", "130905.785000", "130907.785000", "130909.785000", "130911.785000", "130913.785000", "130915.785000", "130917.785000", "130919.785000", "130921.785000", "130923.785000", "130925.785000", "130927.785000", "130929.785000", "130931.785000", "130933.785000", "130935.785000", "130937.785000", "130939.785000", "130941.785000", "130943.785000", "130945.785000", "130947.785000", "130949.785000", "130951.785000", "130953.785000", "130955.785000", "130957.785000", "130959.785000", "131001.785000", "131003.785000", "131005.785000", "131007.785000", "131009.785000", "131011.785000", "131013.785000", "131015.785000", "131017.785000", "131019.785000", "131021.785000", "131023.785000", "131025.785000", "131027.785000", "131029.785000", "131031.785000", "131033.785000", "131035.785000", "131037.785000", "131039.785000", "131041.785000", "131043.785000", "131045.785000", "131047.785000", "131049.785000", "131051.785000", "131053.785000", "131055.785000", "131057.785000", "131059.785000", "131101.785000", "131103.785000", "131105.785000", "131107.785000", "131109.785000", "131111.785000", "131113.785000", "131115.785000", "131117.785000", "131119.785000", "131121.785000", "131123.785000", "131125.785000", "131127.785000", "131129.785000", "131131.785000", "131133.785000", "131135.785000", "131137.785000", "131139.785000", "131141.785000", "131143.785000", "131145.785000", "131147.785000", "131149.785000", "131151.785000", "131153.785000", "131155.785000", "131157.785000", "131159.785000", "131201.785000", "131203.785000", "131205.785000", "131207.785000", "131209.785000", "131211.785000", "131213.785000", "131215.785000", "131217.785000", "131219.785000", "131221.785000", "131223.785000", "131225.785000", "131227.785000", "131229.785000", "131231.785000", "131233.785000", "131235.785000", "131237.785000", "131239.785000", "131241.785000", "131243.785000", "131245.785000", "131247.785000", "131249.785000", "131251.785000", "131253.785000", "131255.785000", "131257.785000", "131259.785000", "131301.785000", "131303.785000", "131305.785000", "131307.785000", "131309.785000", "131311.785000", "131313.785000", "131315.785000", "131317.785000", "131319.785000", "131321.785000", "131323.785000", "131325.785000", "131327.785000", "131329.785000", "131331.785000", "131333.785000", "131335.785000", "131337.785000", "131339.785000", "131341.785000", "131343.785000", "131345.785000", "131347.785000", "131349.785000", "131351.785000", "131353.785000", "131355.785000", "131357.785000", "131359.785000", "131401.785000", "131403.785000", "131405.785000", "131407.785000", "131409.785000", "131411.785000", "131413.785000", "131415.785000", "131417.785000", "131419.785000", "131421.785000", "131423.785000", "131425.785000"],
      "ContentTime": ["130729.660000", "130730.653000", "130731.653000", "130731.657000", "130732.653000", "130733.653000", "130734.654000", "130735.653000", "130736.652000", "130736.661000", "130737.653000", "130738.652000", "130739.652000", "130740.653000", "130742.654000", "130744.654000", "130746.654000", "130748.653000", "130750.654000", "130752.654000", "130754.654000", "130756.653000", "130758.654000", "130800.654000", "130802.654000", "130804.654000", "130806.654000", "130808.654000", "130810.654000", "130812.654000", "130814.653000", "130816.654000", "130818.654000", "130820.654000", "130822.654000", "130824.654000", "130826.655000", "130828.654000", "130830.653000", "130832.654000", "130834.654000", "130836.654000", "130838.654000", "130840.654000", "130842.654000", "130844.654000", "130846.654000", "130848.654000", "130850.654000", "130852.654000", "130854.654000", "130856.654000", "130858.654000", "130900.654000", "130902.654000", "130904.654000", "130906.653000", "130908.654000", "130910.654000", "130912.654000", "130914.654000", "130916.654000", "130918.654000", "130920.654000", "130922.654000", "130924.653000", "130926.654000", "130928.654000", "130930.654000", "130932.654000", "130934.654000", "130936.653000", "130938.655000", "130940.653000", "130942.654000", "130944.654000", "130946.654000", "130948.654000", "130950.654000", "130952.654000", "130954.652000", "130956.654000", "130958.653000", "131000.654000", "131002.654000", "131004.654000", "131006.654000", "131008.654000", "131010.654000", "131012.654000", "131014.654000", "131016.653000", "131018.654000", "131020.654000", "131022.654000", "131024.654000", "131026.654000", "131028.654000", "131030.654000", "131032.654000", "131034.654000", "131036.654000", "131038.654000", "131040.654000", "131042.654000", "131044.654000", "131046.654000", "131048.654000", "131050.653000", "131052.654000", "131054.655000", "131056.654000", "131058.654000", "131100.654000", "131102.653000", "131104.655000", "131106.654000", "131108.653000", "131110.655000", "131112.653000", "131114.654000", "131116.654000", "131118.654000", "131120.654000", "131122.653000", "131124.654000", "131126.653000", "131128.654000", "131130.654000", "131132.654000", "131134.653000", "131136.653000", "131138.653000", "131140.654000", "131142.654000", "131144.654000", "131146.654000", "131148.654000", "131150.654000", "131152.654000", "131154.654000", "131156.655000", "131158.654000", "131200.653000", "131202.654000", "131204.654000", "131206.655000", "131208.654000", "131210.654000", "131212.654000", "131214.654000", "131216.654000", "131218.653000", "131220.654000", "131222.654000", "131224.654000", "131226.654000", "131228.654000", "131230.654000", "131232.654000", "131234.654000", "131236.653000", "131238.654000", "131240.654000", "131242.654000", "131244.654000", "131246.654000", "131248.654000", "131250.654000", "131252.654000", "131254.654000", "131256.655000", "131258.655000", "131300.654000", "131302.654000", "131304.654000", "131306.654000", "131308.654000", "131310.651000", "131312.654000", "131314.654000", "131316.654000", "131318.654000", "131320.655000", "131322.655000", "131324.654000", "131326.654000", "131328.653000", "131330.654000", "131332.654000", "131334.654000", "131336.654000", "131338.654000", "131340.654000", "131342.654000", "131344.654000", "131346.653000", "131348.654000", "131350.655000", "131352.654000", "131354.654000", "131356.654000", "131358.654000", "131400.654000", "131402.654000", "131404.655000", "131406.654000", "131408.654000", "131410.654000", "131412.652000", "131414.654000", "131416.654000", "131418.654000", "131420.653000", "131422.654000", "131424.654000", "131426.654000", "131428.337000"],
      "InstanceCreationTime": ["130729.660000", "130730.653000", "130731.653000", "130731.657000", "130732.653000", "130733.653000", "130734.654000", "130735.653000", "130736.652000", "130736.661000", "130737.653000", "130738.652000", "130739.652000", "130740.653000", "130742.654000", "130744.654000", "130746.654000", "130748.653000", "130750.654000", "130752.654000", "130754.654000", "130756.653000", "130758.654000", "130800.654000", "130802.654000", "130804.654000", "130806.654000", "130808.654000", "130810.654000", "130812.654000", "130814.653000", "130816.654000", "130818.654000", "130820.654000", "130822.654000", "130824.654000", "130826.655000", "130828.654000", "130830.653000", "130832.654000", "130834.654000", "130836.654000", "130838.654000", "130840.654000", "130842.654000", "130844.654000", "130846.654000", "130848.654000", "130850.654000", "130852.654000", "130854.654000", "130856.654000", "130858.654000", "130900.654000", "130902.654000", "130904.654000", "130906.653000", "130908.654000", "130910.654000", "130912.654000", "130914.654000", "130916.654000", "130918.654000", "130920.654000", "130922.654000", "130924.653000", "130926.654000", "130928.654000", "130930.654000", "130932.654000", "130934.654000", "130936.653000", "130938.655000", "130940.653000", "130942.654000", "130944.654000", "130946.654000", "130948.654000", "130950.654000", "130952.654000", "130954.652000", "130956.654000", "130958.653000", "131000.654000", "131002.654000", "131004.654000", "131006.654000", "131008.654000", "131010.654000", "131012.654000", "131014.654000", "131016.653000", "131018.654000", "131020.654000", "131022.654000", "131024.654000", "131026.654000", "131028.654000", "131030.654000", "131032.654000", "131034.654000", "131036.654000", "131038.654000", "131040.654000", "131042.654000", "131044.654000", "131046.654000", "131048.654000", "131050.653000", "131052.654000", "131054.655000", "131056.654000", "131058.654000", "131100.654000", "131102.653000", "131104.655000", "131106.654000", "131108.653000", "131110.655000", "131112.653000", "131114.654000", "131116.654000", "131118.654000", "131120.654000", "131122.653000", "131124.654000", "131126.653000", "131128.654000", "131130.654000", "131132.654000", "131134.653000", "131136.653000", "131138.653000", "131140.654000", "131142.654000", "131144.654000", "131146.654000", "131148.654000", "131150.654000", "131152.654000", "131154.654000", "131156.655000", "131158.654000", "131200.653000", "131202.654000", "131204.654000", "131206.655000", "131208.654000", "131210.654000", "131212.654000", "131214.654000", "131216.654000", "131218.653000", "131220.654000", "131222.654000", "131224.654000", "131226.654000", "131228.654000", "131230.654000", "131232.654000", "131234.654000", "131236.653000", "131238.654000", "131240.654000", "131242.654000", "131244.654000", "131246.654000", "131248.654000", "131250.654000", "131252.654000", "131254.654000", "131256.655000", "131258.655000", "131300.654000", "131302.654000", "131304.654000", "131306.654000", "131308.654000", "131310.651000", "131312.654000", "131314.654000", "131316.654000", "131318.654000", "131320.655000", "131322.655000", "131324.654000", "131326.654000", "131328.653000", "131330.654000", "131332.654000", "131334.654000", "131336.654000", "131338.654000", "131340.654000", "131342.654000", "131344.654000", "131346.653000", "131348.654000", "131350.655000", "131352.654000", "131354.654000", "131356.654000", "131358.654000", "131400.654000", "131402.654000", "131404.655000", "131406.654000", "131408.654000", "131410.654000", "131412.652000", "131414.654000", "131416.654000", "131418.654000", "131420.653000", "131422.654000", "131424.654000", "131426.654000", "131428.337000"],
      "InstanceNumber": [1, 2, 3, 4, 5, 6, 7, 8, 9, 10, 11, 12, 13, 14, 15, 16, 17, 18, 19, 20, 21, 22, 23, 24, 25, 26, 27, 28, 29, 30, 31, 32, 33, 34, 35, 36, 37, 38, 39, 40, 41, 42, 43, 44, 45, 46, 47, 48, 49, 50, 51, 52, 53, 54, 55, 56, 57, 58, 59, 60, 61, 62, 63, 64, 65, 66, 67, 68, 69, 70, 71, 72, 73, 74, 75, 76, 77, 78, 79, 80, 81, 82, 83, 84, 85, 86, 87, 88, 89, 90, 91, 92, 93, 94, 95, 96, 97, 98, 99, 100, 101, 102, 103, 104, 105, 106, 107, 108, 109, 110, 111, 112, 113, 114, 115, 116, 117, 118, 119, 120, 121, 122, 123, 124, 125, 126, 127, 128, 129, 130, 131, 132, 133, 134, 135, 136, 137, 138, 139, 140, 141, 142, 143, 144, 145, 146, 147, 148, 149, 150, 151, 152, 153, 154, 155, 156, 157, 158, 159, 160, 161, 162, 163, 164, 165, 166, 167, 168, 169, 170, 171, 172, 173, 174, 175, 176, 177, 178, 179, 180, 181, 182, 183, 184, 185, 186, 187, 188, 189, 190, 191, 192, 193, 194, 195, 196, 197, 198, 199, 200, 201, 202, 203, 204, 205, 206, 207, 208, 209, 210, 211, 212, 213, 214, 215, 216, 217, 218],
      "WindowCenter": [15074.0, 15069.0, 15060.0, 15081.0, 15074.0, 15074.0, 15070.0, 15056.0, 15054.0, 15053.0, 15055.0, 15045.0, 15053.0, 15055.0, 15055.0, 15058.0, 15047.0, 15043.0, 15035.0, 15048.0, 15055.0, 15055.0, 15053.0, 15048.0, 15039.0, 15046.0, 15055.0, 15064.0, 15061.0, 15055.0, 15074.0, 15041.0, 15050.0, 15054.0, 15050.0, 15048.0, 15052.0, 15047.0, 15058.0, 15059.0, 15056.0, 15046.0, 15042.0, 15035.0, 15038.0, 15051.0, 15048.0, 15047.0, 15045.0, 15052.0, 15059.0, 15052.0, 15056.0, 15049.0, 15047.0, 15061.0, 15052.0, 15037.0, 15038.0, 15038.0, 15053.0, 15055.0, 15045.0, 15052.0, 15052.0, 15052.0, 15053.0, 15041.0, 15045.0, 15047.0, 15047.0, 15043.0, 15045.0, 15046.0, 15064.0, 15050.0, 15053.0, 15056.0, 15043.0, 15050.0, 15054.0, 15063.0, 15069.0, 15062.0, 15059.0, 15053.0, 15056.0, 15061.0, 15050.0, 15041.0, 15043.0, 15055.0, 15058.0, 15058.0, 15053.0, 15047.0, 15051.0, 15053.0, 15054.0, 15049.0, 15046.0, 15045.0, 15058.0, 15055.0, 15061.0, 15057.0, 15056.0, 15060.0, 15059.0, 15063.0, 15071.0, 15062.0, 15062.0, 15062.0, 15063.0, 15051.0, 15060.0, 15066.0, 15043.0, 15045.0, 15048.0, 15049.0, 15046.0, 15063.0, 15046.0, 15054.0, 15049.0, 15045.0, 15043.0, 15047.0, 15066.0, 15061.0, 15060.0, 15071.0, 15061.0, 15069.0, 15062.0, 15053.0, 15068.0, 15061.0, 15065.0, 15078.0, 15064.0, 15059.0, 15054.0, 15055.0, 15044.0, 15052.0, 15050.0, 15056.0, 15040.0, 15041.0, 15054.0, 15068.0, 15056.0, 15051.0, 15067.0, 15054.0, 15048.0, 15048.0, 15053.0, 15054.0, 15050.0, 15058.0, 15060.0, 15057.0, 15046.0, 15057.0, 15057.0, 15054.0, 15054.0, 15044.0, 15053.0, 15048.0, 15058.0, 15060.0, 15056.0, 15054.0, 15051.0, 15056.0, 15056.0, 15067.0, 15062.0, 15053.0, 15064.0, 15063.0, 15054.0, 15048.0, 15063.0, 15060.0, 15049.0, 15054.0, 15062.0, 15052.0, 15050.0, 15059.0, 15056.0, 15042.0, 15052.0, 15045.0, 15062.0, 15062.0, 15060.0, 15068.0, 15069.0, 15059.0, 15051.0, 15055.0, 15049.0, 15056.0, 15044.0, 15058.0, 15055.0, 15064.0, 15051.0, 15051.0, 15050.0, 15051.0],
      "WindowWidth": [41933.0, 41853.0, 41930.0, 41985.0, 41959.0, 41857.0, 41839.0, 41791.0, 41777.0, 41791.0, 41835.0, 41869.0, 41877.0, 41835.0, 41777.0, 41722.0, 41754.0, 41807.0, 41800.0, 41813.0, 41820.0, 41809.0, 41777.0, 41784.0, 41821.0, 41886.0, 41898.0, 41865.0, 41843.0, 41824.0, 41874.0, 41836.0, 41785.0, 41776.0, 41834.0, 41842.0, 41815.0, 41826.0, 41871.0, 41887.0, 41809.0, 41794.0, 41789.0, 41766.0, 41758.0, 41832.0, 41857.0, 41869.0, 41882.0, 41833.0, 41858.0, 41852.0, 41882.0, 41886.0, 41870.0, 41815.0, 41790.0, 41818.0, 41860.0, 41875.0, 41875.0, 41807.0, 41767.0, 41803.0, 41834.0, 41850.0, 41790.0, 41776.0, 41853.0, 41845.0, 41829.0, 41823.0, 41871.0, 41932.0, 41889.0, 41826.0, 41775.0, 41824.0, 41840.0, 41846.0, 41852.0, 41850.0, 41782.0, 41762.0, 41773.0, 41792.0, 41871.0, 41859.0, 41804.0, 41807.0, 41837.0, 41909.0, 41865.0, 41796.0, 41834.0, 41856.0, 41848.0, 41835.0, 41850.0, 41832.0, 41868.0, 41871.0, 41811.0, 41820.0, 41841.0, 41852.0, 41836.0, 41799.0, 41870.0, 41908.0, 41856.0, 41815.0, 41846.0, 41818.0, 41802.0, 41844.0, 41889.0, 41833.0, 41760.0, 41762.0, 41797.0, 41844.0, 41873.0, 41844.0, 41810.0, 41831.0, 41787.0, 41781.0, 41778.0, 41842.0, 41907.0, 41871.0, 41840.0, 41813.0, 41817.0, 41811.0, 41833.0, 41894.0, 41910.0, 41871.0, 41806.0, 41792.0, 41820.0, 41827.0, 41806.0, 41804.0, 41821.0, 41830.0, 41871.0, 41880.0, 41876.0, 41847.0, 41864.0, 41897.0, 41894.0, 41828.0, 41817.0, 41819.0, 41813.0, 41813.0, 41788.0, 41792.0, 41814.0, 41812.0, 41812.0, 41821.0, 41824.0, 41793.0, 41807.0, 41805.0, 41862.0, 41848.0, 41846.0, 41856.0, 41842.0, 41813.0, 41821.0, 41861.0, 41829.0, 41805.0, 41809.0, 41851.0, 41888.0, 41818.0, 41802.0, 41861.0, 41850.0, 41811.0, 41817.0, 41858.0, 41828.0, 41804.0, 41768.0, 41801.0, 41843.0, 41866.0, 41804.0, 41760.0, 41742.0, 41782.0, 41860.0, 41846.0, 41785.0, 41807.0, 41841.0, 41870.0, 41872.0, 41805.0, 41785.0, 41823.0, 41825.0, 41811.0, 41847.0, 41962.0, 41859.0, 41713.0, 41657.0, 41673.0]
    },
    "slices": {}
  }
}