{
  "AcquisitionMatrixPE": 116,
  "AcquisitionNumber": 1,
  "AcquisitionTime": "12:50:52.005000",
  "BandwidthPerPixelPhaseEncode": 18.539,
  "BaseResolution": 116,
  "BodyPartExamined": "HEAD",
  "ConsistencyInfo": "N4_VD13D_LATEST_20130810",
  "ConversionSoftware": "dcm2niix",
  "ConversionSoftwareVersion": "v1.0.20190410  (JP2:OpenJPEG) (JP-LS:CharLS) GCC5.5.0",
  "DerivedVendorReportedEchoSpacing": 0.000930006,
  "DeviceSerialNumber": "66014",
  "DwellTime": 3e-06,
  "EchoTime": 0.03,
  "EchoTrainLength": 50,
  "EffectiveEchoSpacing": 0.000465003,
  "FlipAngle": 81,
  "ImageComments": "Unaliased_MB3_PE4",
  "ImageOrientationPatientDICOM": [0.99742, -0.0635174, 0.0334467, 0.0697463, 0.967734, -0.24213],
  "ImageType": [
    "ORIGINAL",
    "PRIMARY",
    "M",
    "MB",
    "ND",
    "MOSAIC"
],
  "ImagingFrequency": 123.261,
  "InPlanePhaseEncodingDirectionDICOM": "COL",
  "InstitutionAddress": "Yiheyuan_Road_5_Beijing_Haidian_CN_100871",
  "InstitutionName": "Peking_Univeristy",
  "InstitutionalDepartmentName": "Department",
  "MRAcquisitionType": "2D",
  "MagneticFieldStrength": 3,
  "Manufacturer": "Siemens",
  "ManufacturersModelName": "Prisma",
  "Modality": "MR",
  "MultibandAccelerationFactor": 3,
  "ParallelReductionFactorInPlane": 2,
  "PartialFourier": 0.875,
  "PatientPosition": "HFS",
  "PercentPhaseFOV": 100,
  "PhaseEncodingDirection": "j-",
  "PhaseEncodingSteps": 101,
  "PhaseResolution": 1,
  "PixelBandwidth": 1435,
  "ProcedureStepDescription": "Research_Projects_64CH",
  "ProtocolName": "mbep2d_bold_MB3_learn4",
  "PulseSequenceDetails": "%CustomerSeq%_cmrr_mbep2d_bold",
  "ReceiveCoilActiveElements": "HC1-7;NC1",
  "ReceiveCoilName": "HeadNeck_64",
  "ReconMatrixPE": 116,
  "RefLinesPE": 44,
  "RepetitionTime": 2,
  "SAR": 0.0583865,
  "ScanOptions": "PFP_FS",
  "ScanningSequence": "EP",
  "SequenceName": "epfid2d1_116",
  "SequenceVariant": "SK_SS",
  "SeriesDescription": "mbep2d_bold_MB3_learn4",
  "SeriesNumber": 9,
  "ShimSetting": [-3458, -2090, -1968, 347, -52, -171, 37, 47],
  "SliceThickness": 1.9,
  "SliceTiming": [0, 0.9075, 1.815, 0.7425, 1.65, 0.5775, 1.485, 0.4125, 1.32, 0.2475, 1.155, 0.0825, 0.99, 1.8975, 0.825, 1.7325, 0.66, 1.5675, 0.495, 1.4025, 0.33, 1.2375, 0.165, 1.0725, 0, 0.9075, 1.815, 0.7425, 1.65, 0.5775, 1.485, 0.4125, 1.32, 0.2475, 1.155, 0.0825, 0.99, 1.8975, 0.825, 1.7325, 0.66, 1.5675, 0.495, 1.4025, 0.33, 1.2375, 0.165, 1.0725, 0, 0.9075, 1.815, 0.7425, 1.65, 0.5775, 1.485, 0.4125, 1.32, 0.2475, 1.155, 0.0825, 0.99, 1.8975, 0.825, 1.7325, 0.66, 1.5675, 0.495, 1.4025, 0.33, 1.2375, 0.165, 1.0725],
  "SoftwareVersions": "syngo_MR_D13D",
  "SpacingBetweenSlices": 1.9,
  "StationName": "AWP66014",
  "TaskName": "updating",
  "TotalReadoutTime": 0.0534753,
  "TxRefAmp": 220.68,
  "WipMemBlock": "0e601fc0-54bf-4ebd-a722-0ca6322b80e3||Sequence: vd13d/master r/0735857; Nov 19 2014 09:21:40 by eja",
  "dcmmeta_affine": [
    [-1.8916587829589844, 0.13227756321430206, 0.03227730840444565, 102.43553924560547],
    [0.12046407163143158, 1.8353569507598877, -0.4632927477359772, -90.94318389892578],
    [0.06343348324298859, 0.45921239256858826, 1.8423675298690796, -114.22114562988281],
    [0.0, 0.0, 0.0, 1.0]
],
  "dcmmeta_reorient_transform": [
    [0.0, -1.0, 0.0, 115.0],
    [1.0, 0.0, 0.0, 0.0],
    [0.0, 0.0, 1.0, 0.0],
    [0.0, 0.0, 0.0, 1.0]
],
  "dcmmeta_shape": [116, 116, 72, 218],
  "dcmmeta_slice_dim": 2,
  "dcmmeta_version": 0.6,
  "global": {
    "const": {
      "AcquisitionMatrix": [116, 0, 0, 116],
      "AngioFlag": "N",
      "BitsAllocated": 16,
      "BitsStored": 16,
      "BodyPartExamined": "HEAD",
      "Columns": 1044,
      "EchoNumbers": 1,
      "EchoTime": 30.0,
      "EchoTrainLength": 50,
      "FlipAngle": 81.0,
      "HighBit": 15,
      "ImageOrientationPatient": [0.99742009843728, -0.0635174190687, 0.03344674435915, 0.06974634865739, 0.96773365653115, -0.2421301651299],
      "ImagePositionPatient": [-1056.7539342862, -915.83315753345, 122.22968942778],
      "ImageType": [
        "ORIGINAL",
        "PRIMARY",
        "M",
        "MB",
        "ND",
        "MOSAIC"
],
      "ImagedNucleus": "1H",
      "ImagingFrequency": 123.260577,
      "InPlanePhaseEncodingDirection": "COL",
      "LargestImagePixelValue": 65535,
      "MRAcquisitionType": "2D",
      "MagneticFieldStrength": 3.0,
      "Manufacturer": "SIEMENS",
      "ManufacturerModelName": "Prisma",
      "Modality": "MR",
      "NumberOfAverages": 1.0,
      "NumberOfPhaseEncodingSteps": 101,
      "PercentPhaseFieldOfView": 100.0,
      "PercentSampling": 100.0,
      "PerformedProcedureStepStartTime": "120732.769000",
      "PhotometricInterpretation": "MONOCHROME2",
      "PixelBandwidth": 1435.0,
      "PixelRepresentation": 0,
      "PixelSpacing": [1.8965517282486, 1.8965517282486],
      "ProtocolName": "mbep2d_bold_MB3_learn4",
      "RepetitionTime": 2000.0,
      "Rows": 1044,
      "SAR": 0.05838655077811,
      "SamplesPerPixel": 1,
      "ScanOptions": [
        "PFP",
        "FS"
],
      "ScanningSequence": "EP",
      "SequenceName": "epfid2d1_116",
      "SequenceVariant": [
        "SK",
        "SS"
],
      "SeriesDescription": "mbep2d_bold_MB3_learn4",
      "SeriesNumber": 9,
      "SeriesTime": "125109.367000",
      "SliceLocation": -86.840877749177,
      "SliceThickness": 1.8999999761581,
      "SmallestImagePixelValue": 0,
      "SoftwareVersions": "syngo MR D13D",
      "SpacingBetweenSlices": 1.9000000706293,
      "SpecificCharacterSet": "ISO_IR 100",
      "StudyID": "1",
      "StudyTime": "120732.670000",
      "TimeOfLastCalibration": ["123723.000000", "123723.000000"],
      "TransmitCoilName": "Body",
      "VariableFlipAngleFlag": "N",
      "WindowCenterWidthExplanation": "Algo1",
      "dBdt": 0.0},
    "slices": {}
  },
  "time": {
    "samples": {
      "AcquisitionNumber": [1, 2, 3, 4, 5, 6, 7, 8, 9, 10, 11, 12, 13, 14, 15, 16, 17, 18, 19, 20, 21, 22, 23, 24, 25, 26, 27, 28, 29, 30, 31, 32, 33, 34, 35, 36, 37, 38, 39, 40, 41, 42, 43, 44, 45, 46, 47, 48, 49, 50, 51, 52, 53, 54, 55, 56, 57, 58, 59, 60, 61, 62, 63, 64, 65, 66, 67, 68, 69, 70, 71, 72, 73, 74, 75, 76, 77, 78, 79, 80, 81, 82, 83, 84, 85, 86, 87, 88, 89, 90, 91, 92, 93, 94, 95, 96, 97, 98, 99, 100, 101, 102, 103, 104, 105, 106, 107, 108, 109, 110, 111, 112, 113, 114, 115, 116, 117, 118, 119, 120, 121, 122, 123, 124, 125, 126, 127, 128, 129, 130, 131, 132, 133, 134, 135, 136, 137, 138, 139, 140, 141, 142, 143, 144, 145, 146, 147, 148, 149, 150, 151, 152, 153, 154, 155, 156, 157, 158, 159, 160, 161, 162, 163, 164, 165, 166, 167, 168, 169, 170, 171, 172, 173, 174, 175, 176, 177, 178, 179, 180, 181, 182, 183, 184, 185, 186, 187, 188, 189, 190, 191, 192, 193, 194, 195, 196, 197, 198, 199, 200, 201, 202, 203, 204, 205, 206, 207, 208, 209, 210, 211, 212, 213, 214, 215, 216, 217, 218],
      "AcquisitionTime": ["125052.005000", "125054.005000", "125056.005000", "125058.005000", "125100.005000", "125102.005000", "125104.005000", "125106.005000", "125108.005000", "125110.005000", "125112.005000", "125114.005000", "125116.005000", "125118.005000", "125120.005000", "125122.005000", "125124.005000", "125126.005000", "125128.005000", "125130.005000", "125132.005000", "125134.005000", "125136.005000", "125138.005000", "125140.005000", "125142.005000", "125144.005000", "125146.005000", "125148.005000", "125150.005000", "125152.005000", "125154.005000", "125156.005000", "125158.005000", "125200.005000", "125202.005000", "125204.005000", "125206.005000", "125208.005000", "125210.005000", "125212.005000", "125214.005000", "125216.005000", "125218.005000", "125220.005000", "125222.005000", "125224.005000", "125226.005000", "125228.005000", "125230.005000", "125232.005000", "125234.005000", "125236.005000", "125238.005000", "125240.005000", "125242.005000", "125244.005000", "125246.005000", "125248.005000", "125250.005000", "125252.005000", "125254.005000", "125256.005000", "125258.005000", "125300.005000", "125302.005000", "125304.005000", "125306.005000", "125308.005000", "125310.005000", "125312.005000", "125314.005000", "125316.005000", "125318.005000", "125320.007500", "125322.007500", "125324.007500", "125326.007500", "125328.007500", "125330.007500", "125332.007500", "125334.007500", "125336.007500", "125338.007500", "125340.007500", "125342.007500", "125344.007500", "125346.007500", "125348.007500", "125350.007500", "125352.007500", "125354.007500", "125356.007500", "125358.007500", "125400.007500", "125402.007500", "125404.007500", "125406.007500", "125408.007500", "125410.007500", "125412.007500", "125414.007500", "125416.007500", "125418.007500", "125420.007500", "125422.007500", "125424.007500", "125426.007500", "125428.007500", "125430.007500", "125432.007500", "125434.007500", "125436.007500", "125438.007500", "125440.007500", "125442.007500", "125444.007500", "125446.007500", "125448.007500", "125450.007500", "125452.007500", "125454.007500", "125456.007500", "125458.007500", "125500.007500", "125502.007500", "125504.007500", "125506.007500", "125508.007500", "125510.007500", "125512.007500", "125514.007500", "125516.007500", "125518.007500", "125520.007500", "125522.007500", "125524.007500", "125526.007500", "125528.007500", "125530.007500", "125532.007500", "125534.007500", "125536.007500", "125538.007500", "125540.007500", "125542.007500", "125544.007500", "125546.007500", "125548.007500", "125550.007500", "125552.007500", "125554.007500", "125556.007500", "125558.007500", "125600.007500", "125602.007500", "125604.007500", "125606.007500", "125608.007500", "125610.007500", "125612.007500", "125614.007500", "125616.007500", "125618.007500", "125620.007500", "125622.007500", "125624.007500", "125626.007500", "125628.007500", "125630.007500", "125632.007500", "125634.007500", "125636.007500", "125638.007500", "125640.007500", "125642.007500", "125644.007500", "125646.007500", "125648.007500", "125650.007500", "125652.007500", "125654.007500", "125656.007500", "125658.007500", "125700.007500", "125702.007500", "125704.007500", "125706.007500", "125708.007500", "125710.007500", "125712.007500", "125714.007500", "125716.007500", "125718.007500", "125720.007500", "125722.007500", "125724.007500", "125726.007500", "125728.007500", "125730.007500", "125732.007500", "125734.007500", "125736.007500", "125738.007500", "125740.007500", "125742.007500", "125744.007500", "125746.007500", "125748.007500", "125750.007500", "125752.007500", "125754.007500", "125756.007500", "125758.007500", "125800.007500", "125802.007500", "125804.007500", "125806.007500"],
      "ContentTime": ["125109.373000", "125110.349000", "125111.350000", "125111.354000", "125112.349000", "125113.349000", "125114.348000", "125115.348000", "125116.347000", "125117.347000", "125117.352000", "125118.348000", "125119.348000", "125120.348000", "125122.350000", "125124.350000", "125126.350000", "125128.350000", "125130.350000", "125132.349000", "125134.349000", "125136.349000", "125138.350000", "125140.350000", "125142.349000", "125144.350000", "125146.350000", "125148.350000", "125150.349000", "125152.349000", "125154.349000", "125156.350000", "125158.350000", "125200.350000", "125202.348000", "125204.350000", "125206.350000", "125208.349000", "125210.349000", "125212.348000", "125214.350000", "125216.350000", "125218.349000", "125220.350000", "125222.350000", "125224.350000", "125226.349000", "125228.349000", "125230.349000", "125232.350000", "125234.349000", "125236.350000", "125238.350000", "125240.350000", "125242.349000", "125244.349000", "125246.349000", "125248.350000", "125250.350000", "125252.350000", "125254.350000", "125256.350000", "125258.350000", "125300.349000", "125302.349000", "125304.349000", "125306.350000", "125308.350000", "125310.350000", "125312.350000", "125314.350000", "125316.350000", "125318.349000", "125320.349000", "125322.349000", "125324.350000", "125326.350000", "125328.350000", "125330.351000", "125332.350000", "125334.350000", "125336.349000", "125338.349000", "125340.349000", "125342.350000", "125344.350000", "125346.350000", "125348.350000", "125350.350000", "125352.349000", "125354.349000", "125356.347000", "125358.350000", "125400.350000", "125402.350000", "125404.350000", "125406.350000", "125408.350000", "125410.350000", "125412.349000", "125414.347000", "125416.349000", "125418.350000", "125420.350000", "125422.350000", "125424.350000", "125426.350000", "125428.349000", "125430.349000", "125432.348000", "125434.350000", "125436.350000", "125438.350000", "125440.350000", "125442.350000", "125444.350000", "125446.349000", "125448.349000", "125450.349000", "125452.350000", "125454.350000", "125456.350000", "125458.350000", "125500.350000", "125502.349000", "125504.349000", "125506.349000", "125508.349000", "125510.350000", "125512.351000", "125514.350000", "125516.350000", "125518.350000", "125520.349000", "125522.348000", "125524.349000", "125526.350000", "125528.351000", "125530.349000", "125532.350000", "125534.349000", "125536.349000", "125538.348000", "125540.348000", "125542.349000", "125544.349000", "125546.350000", "125548.350000", "125550.350000", "125552.350000", "125554.349000", "125556.349000", "125558.348000", "125600.348000", "125602.349000", "125604.349000", "125606.349000", "125608.349000", "125610.349000", "125612.347000", "125614.348000", "125616.348000", "125618.349000", "125620.348000", "125622.349000", "125624.359000", "125626.348000", "125628.349000", "125630.347000", "125632.347000", "125634.347000", "125636.348000", "125638.348000", "125640.348000", "125642.348000", "125644.349000", "125646.349000", "125648.347000", "125650.347000", "125652.347000", "125654.349000", "125656.348000", "125658.348000", "125700.349000", "125702.348000", "125704.348000", "125706.348000", "125708.348000", "125710.348000", "125712.349000", "125714.349000", "125716.349000", "125718.348000", "125720.349000", "125722.348000", "125724.347000", "125726.348000", "125728.349000", "125730.349000", "125732.370000", "125734.349000", "125736.349000", "125738.349000", "125740.348000", "125742.348000", "125744.348000", "125746.349000", "125748.349000", "125750.349000", "125752.349000", "125754.349000", "125756.369000", "125758.348000", "125800.348000", "125802.348000", "125804.349000", "125806.348000", "125808.215000"],
      "InstanceCreationTime": ["125109.373000", "125110.349000", "125111.350000", "125111.354000", "125112.349000", "125113.349000", "125114.348000", "125115.348000", "125116.347000", "125117.347000", "125117.352000", "125118.348000", "125119.348000", "125120.348000", "125122.350000", "125124.350000", "125126.350000", "125128.350000", "125130.350000", "125132.349000", "125134.349000", "125136.349000", "125138.350000", "125140.350000", "125142.349000", "125144.350000", "125146.350000", "125148.350000", "125150.349000", "125152.349000", "125154.349000", "125156.350000", "125158.350000", "125200.350000", "125202.348000", "125204.350000", "125206.350000", "125208.349000", "125210.349000", "125212.348000", "125214.350000", "125216.350000", "125218.349000", "125220.350000", "125222.350000", "125224.350000", "125226.349000", "125228.349000", "125230.349000", "125232.350000", "125234.349000", "125236.350000", "125238.350000", "125240.350000", "125242.349000", "125244.349000", "125246.349000", "125248.350000", "125250.350000", "125252.350000", "125254.350000", "125256.350000", "125258.350000", "125300.349000", "125302.349000", "125304.349000", "125306.350000", "125308.350000", "125310.350000", "125312.350000", "125314.350000", "125316.350000", "125318.349000", "125320.349000", "125322.349000", "125324.350000", "125326.350000", "125328.350000", "125330.351000", "125332.350000", "125334.350000", "125336.349000", "125338.349000", "125340.349000", "125342.350000", "125344.350000", "125346.350000", "125348.350000", "125350.350000", "125352.349000", "125354.349000", "125356.347000", "125358.350000", "125400.350000", "125402.350000", "125404.350000", "125406.350000", "125408.350000", "125410.350000", "125412.349000", "125414.347000", "125416.349000", "125418.350000", "125420.350000", "125422.350000", "125424.350000", "125426.350000", "125428.349000", "125430.349000", "125432.348000", "125434.350000", "125436.350000", "125438.350000", "125440.350000", "125442.350000", "125444.350000", "125446.349000", "125448.349000", "125450.349000", "125452.350000", "125454.350000", "125456.350000", "125458.350000", "125500.350000", "125502.349000", "125504.349000", "125506.349000", "125508.349000", "125510.350000", "125512.351000", "125514.350000", "125516.350000", "125518.350000", "125520.349000", "125522.348000", "125524.349000", "125526.350000", "125528.351000", "125530.349000", "125532.350000", "125534.349000", "125536.349000", "125538.348000", "125540.348000", "125542.349000", "125544.349000", "125546.350000", "125548.350000", "125550.350000", "125552.350000", "125554.349000", "125556.349000", "125558.348000", "125600.348000", "125602.349000", "125604.349000", "125606.349000", "125608.349000", "125610.349000", "125612.347000", "125614.348000", "125616.348000", "125618.349000", "125620.348000", "125622.349000", "125624.359000", "125626.348000", "125628.349000", "125630.347000", "125632.347000", "125634.347000", "125636.348000", "125638.348000", "125640.348000", "125642.348000", "125644.349000", "125646.349000", "125648.347000", "125650.347000", "125652.347000", "125654.349000", "125656.348000", "125658.348000", "125700.349000", "125702.348000", "125704.348000", "125706.348000", "125708.348000", "125710.348000", "125712.349000", "125714.349000", "125716.349000", "125718.348000", "125720.349000", "125722.348000", "125724.347000", "125726.348000", "125728.349000", "125730.349000", "125732.370000", "125734.349000", "125736.349000", "125738.349000", "125740.348000", "125742.348000", "125744.348000", "125746.349000", "125748.349000", "125750.349000", "125752.349000", "125754.349000", "125756.369000", "125758.348000", "125800.348000", "125802.348000", "125804.349000", "125806.348000", "125808.215000"],
      "InstanceNumber": [1, 2, 3, 4, 5, 6, 7, 8, 9, 10, 11, 12, 13, 14, 15, 16, 17, 18, 19, 20, 21, 22, 23, 24, 25, 26, 27, 28, 29, 30, 31, 32, 33, 34, 35, 36, 37, 38, 39, 40, 41, 42, 43, 44, 45, 46, 47, 48, 49, 50, 51, 52, 53, 54, 55, 56, 57, 58, 59, 60, 61, 62, 63, 64, 65, 66, 67, 68, 69, 70, 71, 72, 73, 74, 75, 76, 77, 78, 79, 80, 81, 82, 83, 84, 85, 86, 87, 88, 89, 90, 91, 92, 93, 94, 95, 96, 97, 98, 99, 100, 101, 102, 103, 104, 105, 106, 107, 108, 109, 110, 111, 112, 113, 114, 115, 116, 117, 118, 119, 120, 121, 122, 123, 124, 125, 126, 127, 128, 129, 130, 131, 132, 133, 134, 135, 136, 137, 138, 139, 140, 141, 142, 143, 144, 145, 146, 147, 148, 149, 150, 151, 152, 153, 154, 155, 156, 157, 158, 159, 160, 161, 162, 163, 164, 165, 166, 167, 168, 169, 170, 171, 172, 173, 174, 175, 176, 177, 178, 179, 180, 181, 182, 183, 184, 185, 186, 187, 188, 189, 190, 191, 192, 193, 194, 195, 196, 197, 198, 199, 200, 201, 202, 203, 204, 205, 206, 207, 208, 209, 210, 211, 212, 213, 214, 215, 216, 217, 218],
      "WindowCenter": [15051.0, 15037.0, 15057.0, 15058.0, 15068.0, 15047.0, 15042.0, 15044.0, 15027.0, 15034.0, 15026.0, 15045.0, 15047.0, 15031.0, 15032.0, 15035.0, 15035.0, 15040.0, 15040.0, 15033.0, 15024.0, 15029.0, 15038.0, 15019.0, 15026.0, 15039.0, 15023.0, 15022.0, 15027.0, 15024.0, 15024.0, 15022.0, 15026.0, 15042.0, 15031.0, 15024.0, 15031.0, 15033.0, 15036.0, 15021.0, 15038.0, 15034.0, 15042.0, 15036.0, 15033.0, 15045.0, 15038.0, 15039.0, 15031.0, 15031.0, 15041.0, 15027.0, 15026.0, 15022.0, 15032.0, 15034.0, 15030.0, 15033.0, 15040.0, 15024.0, 15017.0, 15035.0, 15030.0, 15035.0, 15035.0, 15034.0, 15037.0, 15038.0, 15033.0, 15040.0, 15052.0, 15034.0, 15026.0, 15026.0, 15038.0, 15039.0, 15048.0, 15049.0, 15041.0, 15032.0, 15038.0, 15035.0, 15038.0, 15047.0, 15033.0, 15048.0, 15034.0, 15054.0, 15038.0, 15039.0, 15036.0, 15048.0, 15041.0, 15039.0, 15046.0, 15052.0, 15052.0, 15042.0, 15044.0, 15043.0, 15048.0, 15046.0, 15056.0, 15053.0, 15057.0, 15046.0, 15037.0, 15045.0, 15050.0, 15044.0, 15038.0, 15041.0, 15042.0, 15043.0, 15044.0, 15045.0, 15056.0, 15048.0, 15037.0, 15041.0, 15052.0, 15052.0, 15049.0, 15054.0, 15048.0, 15043.0, 15054.0, 15056.0, 15057.0, 15054.0, 15051.0, 15046.0, 15043.0, 15056.0, 15064.0, 15049.0, 15041.0, 15044.0, 15047.0, 15036.0, 15054.0, 15045.0, 15051.0, 15061.0, 15062.0, 15046.0, 15040.0, 15045.0, 15043.0, 15056.0, 15053.0, 15049.0, 15052.0, 15042.0, 15045.0, 15044.0, 15045.0, 15061.0, 15051.0, 15052.0, 15055.0, 15049.0, 15039.0, 15044.0, 15038.0, 15035.0, 15050.0, 15044.0, 15047.0, 15051.0, 15053.0, 15046.0, 15039.0, 15058.0, 15051.0, 15048.0, 15045.0, 15039.0, 15046.0, 15051.0, 15054.0, 15050.0, 15049.0, 15053.0, 15057.0, 15064.0, 15046.0, 15061.0, 15059.0, 15051.0, 15050.0, 15053.0, 15044.0, 15050.0, 15040.0, 15049.0, 15048.0, 15038.0, 15045.0, 15047.0, 15050.0, 15038.0, 15050.0, 15066.0, 15051.0, 15044.0, 15056.0, 15054.0, 15050.0, 15044.0, 15036.0, 15052.0, 15049.0, 15046.0, 15036.0, 15046.0, 15052.0, 15062.0],
      "WindowWidth": [41706.0, 41764.0, 41889.0, 41919.0, 41766.0, 41654.0, 41606.0, 41594.0, 41636.0, 41656.0, 41647.0, 41670.0, 41643.0, 41609.0, 41594.0, 41585.0, 41599.0, 41636.0, 41623.0, 41627.0, 41656.0, 41634.0, 41631.0, 41640.0, 41720.0, 41706.0, 41657.0, 41667.0, 41633.0, 41601.0, 41601.0, 41613.0, 41632.0, 41649.0, 41667.0, 41659.0, 41625.0, 41644.0, 41616.0, 41643.0, 41689.0, 41689.0, 41625.0, 41571.0, 41614.0, 41685.0, 41708.0, 41688.0, 41638.0, 41655.0, 41667.0, 41667.0, 41618.0, 41639.0, 41628.0, 41643.0, 41697.0, 41685.0, 41620.0, 41601.0, 41610.0, 41646.0, 41684.0, 41675.0, 41700.0, 41670.0, 41635.0, 41663.0, 41658.0, 41669.0, 41696.0, 41675.0, 41676.0, 41661.0, 41667.0, 41725.0, 41736.0, 41722.0, 41680.0, 41671.0, 41679.0, 41689.0, 41678.0, 41703.0, 41717.0, 41705.0, 41718.0, 41715.0, 41709.0, 41693.0, 41719.0, 41765.0, 41753.0, 41676.0, 41658.0, 41640.0, 41637.0, 41655.0, 41688.0, 41729.0, 41719.0, 41702.0, 41685.0, 41665.0, 41644.0, 41661.0, 41693.0, 41745.0, 41750.0, 41683.0, 41617.0, 41639.0, 41626.0, 41615.0, 41683.0, 41687.0, 41668.0, 41570.0, 41593.0, 41683.0, 41728.0, 41724.0, 41708.0, 41699.0, 41675.0, 41673.0, 41684.0, 41702.0, 41704.0, 41669.0, 41650.0, 41658.0, 41714.0, 41728.0, 41681.0, 41662.0, 41669.0, 41702.0, 41705.0, 41692.0, 41668.0, 41690.0, 41755.0, 41781.0, 41711.0, 41699.0, 41711.0, 41730.0, 41670.0, 41642.0, 41641.0, 41634.0, 41709.0, 41728.0, 41656.0, 41626.0, 41658.0, 41719.0, 41720.0, 41691.0, 41681.0, 41694.0, 41680.0, 41685.0, 41664.0, 41688.0, 41665.0, 41686.0, 41717.0, 41694.0, 41685.0, 41647.0, 41695.0, 41731.0, 41724.0, 41649.0, 41659.0, 41682.0, 41691.0, 41666.0, 41654.0, 41638.0, 41623.0, 41688.0, 41807.0, 41784.0, 41717.0, 41707.0, 41679.0, 41683.0, 41695.0, 41698.0, 41731.0, 41722.0, 41697.0, 41648.0, 41676.0, 41679.0, 41703.0, 41751.0, 41720.0, 41707.0, 41696.0, 41714.0, 41680.0, 41670.0, 41687.0, 41685.0, 41707.0, 41658.0, 41664.0, 41683.0, 41725.0, 41734.0, 41658.0, 41626.0, 41639.0, 41677.0]
    },
    "slices": {}
  }
}