{
  "AcquisitionMatrixPE": 116,
  "AcquisitionNumber": 1,
  "AcquisitionTime": "17:27:5.605000",
  "BandwidthPerPixelPhaseEncode": 18.539,
  "BaseResolution": 116,
  "BodyPartExamined": "HEAD",
  "ConsistencyInfo": "N4_VD13D_LATEST_20130810",
  "ConversionSoftware": "dcm2niix",
  "ConversionSoftwareVersion": "v1.0.20190410  (JP2:OpenJPEG) (JP-LS:CharLS) GCC5.5.0",
  "DerivedVendorReportedEchoSpacing": 0.000930006,
  "DeviceSerialNumber": "66014",
  "DwellTime": 3e-06,
  "EchoTime": 0.03,
  "EchoTrainLength": 50,
  "EffectiveEchoSpacing": 0.000465003,
  "FlipAngle": 81,
  "ImageComments": "Unaliased_MB3_PE4",
  "ImageOrientationPatientDICOM": [0.998997, -0.0408835, 0.0182875, 0.0436172, 0.980821, -0.189968],
  "ImageType": [
    "ORIGINAL",
    "PRIMARY",
    "M",
    "MB",
    "ND",
    "MOSAIC"
],
  "ImagingFrequency": 123.261,
  "InPlanePhaseEncodingDirectionDICOM": "COL",
  "InstitutionAddress": "Yiheyuan_Road_5_Beijing_Haidian_CN_100871",
  "InstitutionName": "Peking_University",
  "InstitutionalDepartmentName": "Department",
  "MRAcquisitionType": "2D",
  "MagneticFieldStrength": 3,
  "Manufacturer": "Siemens",
  "ManufacturersModelName": "Prisma",
  "Modality": "MR",
  "MultibandAccelerationFactor": 3,
  "ParallelReductionFactorInPlane": 2,
  "PartialFourier": 0.875,
  "PatientPosition": "HFS",
  "PercentPhaseFOV": 100,
  "PhaseEncodingDirection": "j-",
  "PhaseEncodingSteps": 101,
  "PhaseResolution": 1,
  "PixelBandwidth": 1435,
  "ProcedureStepDescription": "Research_Projects_64CH",
  "ProtocolName": "mbep2d_bold_MB3_learn6",
  "PulseSequenceDetails": "%CustomerSeq%_cmrr_mbep2d_bold",
  "ReceiveCoilActiveElements": "HC1-7",
  "ReceiveCoilName": "HeadNeck_64",
  "ReconMatrixPE": 116,
  "RefLinesPE": 44,
  "RepetitionTime": 2,
  "SAR": 0.0611812,
  "ScanOptions": "PFP_FS",
  "ScanningSequence": "EP",
  "SequenceName": "epfid2d1_116",
  "SequenceVariant": "SK_SS",
  "SeriesDescription": "mbep2d_bold_MB3_learn6",
  "SeriesNumber": 10,
  "ShimSetting": [-3452, -2073, -1989, 177, -14, -153, -141, -24],
  "SliceThickness": 1.9,
  "SliceTiming": [0, 0.9075, 1.8125, 0.7425, 1.65, 0.5775, 1.485, 0.4125, 1.32, 0.2475, 1.155, 0.0825, 0.99, 1.895, 0.825, 1.73, 0.66, 1.5675, 0.495, 1.4025, 0.33, 1.2375, 0.165, 1.0725, 0, 0.9075, 1.8125, 0.7425, 1.65, 0.5775, 1.485, 0.4125, 1.32, 0.2475, 1.155, 0.0825, 0.99, 1.895, 0.825, 1.73, 0.66, 1.5675, 0.495, 1.4025, 0.33, 1.2375, 0.165, 1.0725, 0, 0.9075, 1.8125, 0.7425, 1.65, 0.5775, 1.485, 0.4125, 1.32, 0.2475, 1.155, 0.0825, 0.99, 1.895, 0.825, 1.73, 0.66, 1.5675, 0.495, 1.4025, 0.33, 1.2375, 0.165, 1.0725],
  "SoftwareVersions": "syngo_MR_D13D",
  "SpacingBetweenSlices": 1.9,
  "StationName": "AWP66014",
  "TaskName": "updating",
  "TotalReadoutTime": 0.0534753,
  "TxRefAmp": 229.88,
  "WipMemBlock": "8c284c0a-f096-48ac-a4b7-95b4f48165cd||Sequence: vd13d/master r/0735857; Nov 19 2014 09:21:40 by eja",
  "dcmmeta_affine": [
    [-1.8946486711502075, 0.08272218704223633, 0.019323354586958885, 103.16249084472656],
    [0.07753758877515793, 1.8601776361465454, -0.3620927035808563, -94.62715148925781],
    [0.034683141857385635, 0.36028429865837097, 1.8650778532028198, -83.50679016113281],
    [0.0, 0.0, 0.0, 1.0]
],
  "dcmmeta_reorient_transform": [
    [0.0, -1.0, 0.0, 115.0],
    [1.0, 0.0, 0.0, 0.0],
    [0.0, 0.0, 1.0, 0.0],
    [0.0, 0.0, 0.0, 1.0]
],
  "dcmmeta_shape": [116, 116, 72, 218],
  "dcmmeta_slice_dim": 2,
  "dcmmeta_version": 0.6,
  "global": {
    "const": {
      "AcquisitionMatrix": [116, 0, 0, 116],
      "AngioFlag": "N",
      "BitsAllocated": 16,
      "BitsStored": 16,
      "BodyPartExamined": "HEAD",
      "Columns": 1044,
      "EchoNumbers": 1,
      "EchoTime": 30.0,
      "EchoTrainLength": 50,
      "FlipAngle": 81.0,
      "HighBit": 15,
      "ImageOrientationPatient": [0.99899655219307, -0.0408834557646, 0.01828747525253, 0.04361715275319, 0.98082091667505, -0.1899680852102],
      "ImagePositionPatient": [-1030.1756012829, -946.43824052467, 109.00483892497],
      "ImageType": [
        "ORIGINAL",
        "PRIMARY",
        "M",
        "MB",
        "ND",
        "MOSAIC"
],
      "ImagedNucleus": "1H",
      "ImagingFrequency": 123.260625,
      "InPlanePhaseEncodingDirection": "COL",
      "LargestImagePixelValue": 65535,
      "MRAcquisitionType": "2D",
      "MagneticFieldStrength": 3.0,
      "Manufacturer": "SIEMENS",
      "ManufacturerModelName": "Prisma",
      "Modality": "MR",
      "NumberOfAverages": 1.0,
      "NumberOfPhaseEncodingSteps": 101,
      "PercentPhaseFieldOfView": 100.0,
      "PercentSampling": 100.0,
      "PerformedProcedureStepStartTime": "162630.091000",
      "PhotometricInterpretation": "MONOCHROME2",
      "PixelBandwidth": 1435.0,
      "PixelRepresentation": 0,
      "PixelSpacing": [1.8965517282486, 1.8965517282486],
      "ProtocolName": "mbep2d_bold_MB3_learn6",
      "RepetitionTime": 2000.0,
      "Rows": 1044,
      "SAR": 0.06118122664132,
      "SamplesPerPixel": 1,
      "ScanOptions": [
        "PFP",
        "FS"
],
      "ScanningSequence": "EP",
      "SequenceName": "epfid2d1_116",
      "SequenceVariant": [
        "SK",
        "SS"
],
      "SeriesDescription": "mbep2d_bold_MB3_learn6",
      "SeriesNumber": 10,
      "SeriesTime": "172720.034000",
      "SliceLocation": -62.889170846879,
      "SliceThickness": 1.8999999761581,
      "SmallestImagePixelValue": 0,
      "SoftwareVersions": "syngo MR D13D",
      "SpacingBetweenSlices": 1.8999999870103,
      "SpecificCharacterSet": "ISO_IR 100",
      "StudyID": "1",
      "StudyTime": "162630.018000",
      "TimeOfLastCalibration": ["123723.000000", "123723.000000"],
      "TransmitCoilName": "Body",
      "VariableFlipAngleFlag": "N",
      "WindowCenterWidthExplanation": "Algo1",
      "dBdt": 0.0},
    "slices": {}
  },
  "time": {
    "samples": {
      "AcquisitionNumber": [1, 2, 3, 4, 5, 6, 7, 8, 9, 10, 11, 12, 13, 14, 15, 16, 17, 18, 19, 20, 21, 22, 23, 24, 25, 26, 27, 28, 29, 30, 31, 32, 33, 34, 35, 36, 37, 38, 39, 40, 41, 42, 43, 44, 45, 46, 47, 48, 49, 50, 51, 52, 53, 54, 55, 56, 57, 58, 59, 60, 61, 62, 63, 64, 65, 66, 67, 68, 69, 70, 71, 72, 73, 74, 75, 76, 77, 78, 79, 80, 81, 82, 83, 84, 85, 86, 87, 88, 89, 90, 91, 92, 93, 94, 95, 96, 97, 98, 99, 100, 101, 102, 103, 104, 105, 106, 107, 108, 109, 110, 111, 112, 113, 114, 115, 116, 117, 118, 119, 120, 121, 122, 123, 124, 125, 126, 127, 128, 129, 130, 131, 132, 133, 134, 135, 136, 137, 138, 139, 140, 141, 142, 143, 144, 145, 146, 147, 148, 149, 150, 151, 152, 153, 154, 155, 156, 157, 158, 159, 160, 161, 162, 163, 164, 165, 166, 167, 168, 169, 170, 171, 172, 173, 174, 175, 176, 177, 178, 179, 180, 181, 182, 183, 184, 185, 186, 187, 188, 189, 190, 191, 192, 193, 194, 195, 196, 197, 198, 199, 200, 201, 202, 203, 204, 205, 206, 207, 208, 209, 210, 211, 212, 213, 214, 215, 216, 217, 218],
      "AcquisitionTime": ["172705.605000", "172707.605000", "172709.605000", "172711.605000", "172713.605000", "172715.605000", "172717.605000", "172719.605000", "172721.605000", "172723.605000", "172725.605000", "172727.605000", "172729.605000", "172731.605000", "172733.605000", "172735.605000", "172737.605000", "172739.605000", "172741.605000", "172743.605000", "172745.605000", "172747.605000", "172749.605000", "172751.605000", "172753.605000", "172755.605000", "172757.605000", "172759.605000", "172801.605000", "172803.605000", "172805.605000", "172807.605000", "172809.605000", "172811.605000", "172813.605000", "172815.605000", "172817.605000", "172819.605000", "172821.605000", "172823.605000", "172825.605000", "172827.605000", "172829.605000", "172831.605000", "172833.605000", "172835.605000", "172837.605000", "172839.605000", "172841.605000", "172843.605000", "172845.605000", "172847.605000", "172849.605000", "172851.605000", "172853.605000", "172855.605000", "172857.605000", "172859.605000", "172901.605000", "172903.605000", "172905.605000", "172907.605000", "172909.605000", "172911.605000", "172913.605000", "172915.605000", "172917.605000", "172919.605000", "172921.605000", "172923.605000", "172925.605000", "172927.605000", "172929.605000", "172931.605000", "172933.605000", "172935.605000", "172937.605000", "172939.605000", "172941.605000", "172943.605000", "172945.605000", "172947.605000", "172949.605000", "172951.605000", "172953.605000", "172955.605000", "172957.605000", "172959.605000", "173001.605000", "173003.605000", "173005.605000", "173007.605000", "173009.605000", "173011.605000", "173013.605000", "173015.605000", "173017.605000", "173019.605000", "173021.605000", "173023.605000", "173025.605000", "173027.605000", "173029.605000", "173031.605000", "173033.605000", "173035.605000", "173037.605000", "173039.605000", "173041.605000", "173043.605000", "173045.605000", "173047.605000", "173049.605000", "173051.605000", "173053.605000", "173055.605000", "173057.605000", "173059.605000", "173101.605000", "173103.605000", "173105.605000", "173107.605000", "173109.605000", "173111.605000", "173113.605000", "173115.605000", "173117.605000", "173119.605000", "173121.605000", "173123.605000", "173125.605000", "173127.605000", "173129.605000", "173131.605000", "173133.605000", "173135.605000", "173137.605000", "173139.605000", "173141.605000", "173143.605000", "173145.605000", "173147.605000", "173149.605000", "173151.605000", "173153.605000", "173155.605000", "173157.605000", "173159.605000", "173201.605000", "173203.605000", "173205.605000", "173207.605000", "173209.605000", "173211.605000", "173213.605000", "173215.605000", "173217.605000", "173219.605000", "173221.605000", "173223.605000", "173225.605000", "173227.605000", "173229.605000", "173231.605000", "173233.605000", "173235.605000", "173237.605000", "173239.605000", "173241.605000", "173243.605000", "173245.605000", "173247.605000", "173249.605000", "173251.605000", "173253.605000", "173255.605000", "173257.605000", "173259.605000", "173301.605000", "173303.605000", "173305.605000", "173307.605000", "173309.605000", "173311.605000", "173313.605000", "173315.605000", "173317.605000", "173319.605000", "173321.605000", "173323.605000", "173325.605000", "173327.605000", "173329.605000", "173331.605000", "173333.605000", "173335.605000", "173337.605000", "173339.605000", "173341.605000", "173343.605000", "173345.605000", "173347.605000", "173349.605000", "173351.605000", "173353.605000", "173355.605000", "173357.605000", "173359.605000", "173401.605000", "173403.605000", "173405.605000", "173407.605000", "173409.605000", "173411.605000", "173413.605000", "173415.605000", "173417.605000", "173419.605000"],
      "ContentTime": ["172720.040000", "172721.025000", "172722.024000", "172722.028000", "172723.025000", "172724.028000", "172725.026000", "172725.030000", "172726.027000", "172727.026000", "172728.527000", "172730.527000", "172732.526000", "172734.526000", "172736.526000", "172738.527000", "172740.526000", "172742.527000", "172744.528000", "172746.527000", "172748.527000", "172750.526000", "172752.526000", "172754.526000", "172756.526000", "172758.525000", "172800.527000", "172802.526000", "172804.528000", "172806.526000", "172808.527000", "172810.524000", "172812.526000", "172814.526000", "172816.527000", "172818.528000", "172820.527000", "172822.527000", "172824.526000", "172826.526000", "172828.526000", "172830.526000", "172832.526000", "172834.528000", "172836.527000", "172838.527000", "172840.525000", "172842.526000", "172844.526000", "172846.527000", "172848.526000", "172850.527000", "172852.527000", "172854.527000", "172856.528000", "172858.526000", "172900.526000", "172902.526000", "172904.526000", "172906.526000", "172908.526000", "172910.528000", "172912.527000", "172914.527000", "172916.526000", "172918.526000", "172920.526000", "172922.529000", "172924.526000", "172926.528000", "172928.528000", "172930.527000", "172932.527000", "172934.526000", "172936.526000", "172938.526000", "172940.526000", "172942.526000", "172944.527000", "172946.528000", "172948.527000", "172950.527000", "172952.526000", "172954.526000", "172956.526000", "172958.527000", "173000.527000", "173002.527000", "173004.527000", "173006.527000", "173008.526000", "173010.526000", "173012.526000", "173014.526000", "173016.526000", "173018.527000", "173020.527000", "173022.527000", "173024.528000", "173026.526000", "173028.526000", "173030.526000", "173032.527000", "173034.527000", "173036.527000", "173038.528000", "173040.527000", "173042.527000", "173044.526000", "173046.526000", "173048.526000", "173050.526000", "173052.526000", "173054.527000", "173056.527000", "173058.527000", "173100.527000", "173102.526000", "173104.527000", "173106.526000", "173108.526000", "173110.526000", "173112.527000", "173114.527000", "173116.527000", "173118.527000", "173120.527000", "173122.526000", "173124.527000", "173126.526000", "173128.526000", "173130.527000", "173132.528000", "173134.527000", "173136.526000", "173138.024000", "173140.526000", "173142.526000", "173144.526000", "173146.527000", "173148.527000", "173150.527000", "173152.527000", "173154.526000", "173156.526000", "173158.526000", "173200.525000", "173202.526000", "173204.527000", "173206.527000", "173208.527000", "173210.527000", "173212.526000", "173214.526000", "173216.527000", "173218.526000", "173220.526000", "173222.528000", "173224.527000", "173226.026000", "173228.527000", "173230.525000", "173232.526000", "173234.525000", "173236.526000", "173238.536000", "173240.527000", "173242.527000", "173244.528000", "173246.526000", "173248.526000", "173250.526000", "173252.526000", "173254.527000", "173256.527000", "173258.527000", "173300.527000", "173302.527000", "173304.526000", "173306.526000", "173308.526000", "173310.526000", "173312.526000", "173314.527000", "173316.527000", "173318.527000", "173320.527000", "173322.526000", "173324.525000", "173326.527000", "173328.526000", "173330.526000", "173332.527000", "173334.527000", "173336.527000", "173338.526000", "173340.526000", "173342.526000", "173344.526000", "173346.526000", "173348.527000", "173350.527000", "173352.528000", "173354.527000", "173356.526000", "173358.526000", "173400.526000", "173402.526000", "173404.527000", "173406.527000", "173408.527000", "173410.527000", "173412.527000", "173414.526000", "173416.526000", "173418.527000", "173420.526000", "173422.007000"],
      "InstanceCreationTime": ["172720.040000", "172721.025000", "172722.024000", "172722.028000", "172723.025000", "172724.028000", "172725.026000", "172725.030000", "172726.027000", "172727.026000", "172728.527000", "172730.527000", "172732.526000", "172734.526000", "172736.526000", "172738.527000", "172740.526000", "172742.527000", "172744.528000", "172746.527000", "172748.527000", "172750.526000", "172752.526000", "172754.526000", "172756.526000", "172758.525000", "172800.527000", "172802.526000", "172804.528000", "172806.526000", "172808.527000", "172810.524000", "172812.526000", "172814.526000", "172816.527000", "172818.528000", "172820.527000", "172822.527000", "172824.526000", "172826.526000", "172828.526000", "172830.526000", "172832.526000", "172834.528000", "172836.527000", "172838.527000", "172840.525000", "172842.526000", "172844.526000", "172846.527000", "172848.526000", "172850.527000", "172852.527000", "172854.527000", "172856.528000", "172858.526000", "172900.526000", "172902.526000", "172904.526000", "172906.526000", "172908.526000", "172910.528000", "172912.527000", "172914.527000", "172916.526000", "172918.526000", "172920.526000", "172922.529000", "172924.526000", "172926.528000", "172928.528000", "172930.527000", "172932.527000", "172934.526000", "172936.526000", "172938.526000", "172940.526000", "172942.526000", "172944.527000", "172946.528000", "172948.527000", "172950.527000", "172952.526000", "172954.526000", "172956.526000", "172958.527000", "173000.527000", "173002.527000", "173004.527000", "173006.527000", "173008.526000", "173010.526000", "173012.526000", "173014.526000", "173016.526000", "173018.527000", "173020.527000", "173022.527000", "173024.528000", "173026.526000", "173028.526000", "173030.526000", "173032.527000", "173034.527000", "173036.527000", "173038.528000", "173040.527000", "173042.527000", "173044.526000", "173046.526000", "173048.526000", "173050.526000", "173052.526000", "173054.527000", "173056.527000", "173058.527000", "173100.527000", "173102.526000", "173104.527000", "173106.526000", "173108.526000", "173110.526000", "173112.527000", "173114.527000", "173116.527000", "173118.527000", "173120.527000", "173122.526000", "173124.527000", "173126.526000", "173128.526000", "173130.527000", "173132.528000", "173134.527000", "173136.526000", "173138.024000", "173140.526000", "173142.526000", "173144.526000", "173146.527000", "173148.527000", "173150.527000", "173152.527000", "173154.526000", "173156.526000", "173158.526000", "173200.525000", "173202.526000", "173204.527000", "173206.527000", "173208.527000", "173210.527000", "173212.526000", "173214.526000", "173216.527000", "173218.526000", "173220.526000", "173222.528000", "173224.527000", "173226.026000", "173228.527000", "173230.525000", "173232.526000", "173234.525000", "173236.526000", "173238.536000", "173240.527000", "173242.527000", "173244.528000", "173246.526000", "173248.526000", "173250.526000", "173252.526000", "173254.527000", "173256.527000", "173258.527000", "173300.527000", "173302.527000", "173304.526000", "173306.526000", "173308.526000", "173310.526000", "173312.526000", "173314.527000", "173316.527000", "173318.527000", "173320.527000", "173322.526000", "173324.525000", "173326.527000", "173328.526000", "173330.526000", "173332.527000", "173334.527000", "173336.527000", "173338.526000", "173340.526000", "173342.526000", "173344.526000", "173346.526000", "173348.527000", "173350.527000", "173352.528000", "173354.527000", "173356.526000", "173358.526000", "173400.526000", "173402.526000", "173404.527000", "173406.527000", "173408.527000", "173410.527000", "173412.527000", "173414.526000", "173416.526000", "173418.527000", "173420.526000", "173422.007000"],
      "InstanceNumber": [1, 2, 3, 4, 5, 6, 7, 8, 9, 10, 11, 12, 13, 14, 15, 16, 17, 18, 19, 20, 21, 22, 23, 24, 25, 26, 27, 28, 29, 30, 31, 32, 33, 34, 35, 36, 37, 38, 39, 40, 41, 42, 43, 44, 45, 46, 47, 48, 49, 50, 51, 52, 53, 54, 55, 56, 57, 58, 59, 60, 61, 62, 63, 64, 65, 66, 67, 68, 69, 70, 71, 72, 73, 74, 75, 76, 77, 78, 79, 80, 81, 82, 83, 84, 85, 86, 87, 88, 89, 90, 91, 92, 93, 94, 95, 96, 97, 98, 99, 100, 101, 102, 103, 104, 105, 106, 107, 108, 109, 110, 111, 112, 113, 114, 115, 116, 117, 118, 119, 120, 121, 122, 123, 124, 125, 126, 127, 128, 129, 130, 131, 132, 133, 134, 135, 136, 137, 138, 139, 140, 141, 142, 143, 144, 145, 146, 147, 148, 149, 150, 151, 152, 153, 154, 155, 156, 157, 158, 159, 160, 161, 162, 163, 164, 165, 166, 167, 168, 169, 170, 171, 172, 173, 174, 175, 176, 177, 178, 179, 180, 181, 182, 183, 184, 185, 186, 187, 188, 189, 190, 191, 192, 193, 194, 195, 196, 197, 198, 199, 200, 201, 202, 203, 204, 205, 206, 207, 208, 209, 210, 211, 212, 213, 214, 215, 216, 217, 218],
      "WindowCenter": [18722.0, 18652.0, 18662.0, 18660.0, 18644.0, 18636.0, 18628.0, 18618.0, 18628.0, 18635.0, 18634.0, 18638.0, 18635.0, 18624.0, 18633.0, 18645.0, 18677.0, 18670.0, 18643.0, 18656.0, 18643.0, 18637.0, 18661.0, 18640.0, 18654.0, 18666.0, 18664.0, 18669.0, 18631.0, 18633.0, 18662.0, 18655.0, 18643.0, 18662.0, 18663.0, 18665.0, 18672.0, 18658.0, 18653.0, 18653.0, 18685.0, 18663.0, 18651.0, 18646.0, 18649.0, 18664.0, 18674.0, 18675.0, 18649.0, 18644.0, 18688.0, 18664.0, 18653.0, 18677.0, 18670.0, 18653.0, 18661.0, 18633.0, 18642.0, 18671.0, 18697.0, 18673.0, 18671.0, 18658.0, 18673.0, 18669.0, 18694.0, 18666.0, 18659.0, 18655.0, 18643.0, 18657.0, 18695.0, 18697.0, 18702.0, 18676.0, 18659.0, 18677.0, 18675.0, 18659.0, 18662.0, 18658.0, 18679.0, 18681.0, 18673.0, 18668.0, 18686.0, 18691.0, 18683.0, 18673.0, 18701.0, 18692.0, 18681.0, 18667.0, 18664.0, 18691.0, 18673.0, 18689.0, 18670.0, 18665.0, 18670.0, 18665.0, 18659.0, 18657.0, 18682.0, 18677.0, 18647.0, 18669.0, 18673.0, 18656.0, 18674.0, 18652.0, 18672.0, 18682.0, 18670.0, 18657.0, 18683.0, 18676.0, 18686.0, 18688.0, 18645.0, 18679.0, 18680.0, 18667.0, 18695.0, 18706.0, 18688.0, 18670.0, 18679.0, 18668.0, 18675.0, 18752.0, 18750.0, 18731.0, 18696.0, 18699.0, 18702.0, 18692.0, 18699.0, 18707.0, 18689.0, 18683.0, 18683.0, 18697.0, 18678.0, 18688.0, 18691.0, 18677.0, 18693.0, 18689.0, 18686.0, 18677.0, 18718.0, 18700.0, 18694.0, 18684.0, 18695.0, 18691.0, 18692.0, 18679.0, 18695.0, 18692.0, 18720.0, 18704.0, 18724.0, 18703.0, 18696.0, 18655.0, 18685.0, 18699.0, 18691.0, 18682.0, 18671.0, 18687.0, 18679.0, 18679.0, 18692.0, 18688.0, 18685.0, 18703.0, 18717.0, 18699.0, 18702.0, 18695.0, 18709.0, 18718.0, 18698.0, 18722.0, 18692.0, 18705.0, 18675.0, 18660.0, 18691.0, 18673.0, 18678.0, 18665.0, 18645.0, 18684.0, 18644.0, 18632.0, 18667.0, 18685.0, 18688.0, 18679.0, 18655.0, 18657.0, 18651.0, 18655.0, 18666.0, 18674.0, 18662.0, 18685.0, 18684.0, 18701.0, 18699.0, 18681.0, 18672.0, 18680.0],
      "WindowWidth": [50108.0, 49984.0, 50068.0, 50067.0, 49998.0, 49900.0, 49849.0, 49890.0, 49918.0, 49947.0, 49910.0, 49877.0, 49840.0, 49882.0, 49921.0, 49963.0, 50041.0, 49919.0, 49858.0, 49818.0, 49824.0, 49831.0, 49856.0, 49880.0, 49888.0, 49906.0, 49881.0, 49848.0, 49874.0, 49936.0, 49962.0, 49923.0, 49917.0, 49940.0, 49976.0, 50000.0, 49979.0, 49973.0, 49969.0, 49981.0, 49985.0, 49950.0, 49873.0, 49846.0, 49884.0, 50010.0, 49979.0, 49885.0, 49862.0, 49929.0, 49976.0, 49987.0, 49970.0, 49993.0, 49990.0, 49921.0, 49843.0, 49863.0, 49916.0, 49896.0, 49827.0, 49827.0, 49837.0, 49936.0, 49956.0, 49955.0, 49933.0, 49928.0, 49877.0, 49804.0, 49820.0, 49900.0, 49991.0, 49946.0, 49866.0, 49842.0, 49891.0, 49911.0, 49911.0, 49913.0, 49903.0, 49913.0, 49912.0, 49904.0, 49923.0, 49978.0, 50012.0, 49991.0, 49939.0, 49921.0, 49949.0, 50014.0, 49961.0, 49906.0, 49905.0, 49898.0, 49994.0, 49990.0, 49955.0, 49869.0, 49838.0, 49881.0, 49901.0, 49924.0, 49925.0, 49924.0, 49907.0, 49872.0, 49874.0, 49923.0, 49922.0, 49899.0, 49944.0, 49890.0, 49825.0, 49842.0, 49939.0, 50005.0, 49953.0, 49871.0, 49861.0, 49879.0, 49938.0, 49954.0, 49969.0, 49985.0, 49929.0, 49872.0, 49843.0, 49956.0, 50033.0, 50144.0, 50048.0, 49990.0, 49947.0, 49950.0, 49952.0, 49956.0, 49973.0, 49954.0, 49942.0, 49940.0, 49963.0, 49925.0, 49914.0, 49941.0, 49956.0, 49947.0, 49933.0, 49919.0, 49859.0, 49912.0, 49957.0, 49972.0, 49922.0, 49952.0, 50027.0, 50003.0, 50014.0, 49985.0, 49981.0, 50039.0, 50103.0, 50082.0, 49962.0, 49951.0, 49910.0, 49877.0, 49905.0, 49936.0, 49919.0, 49903.0, 49921.0, 49954.0, 49962.0, 49927.0, 49921.0, 49895.0, 49930.0, 50033.0, 50040.0, 49971.0, 49890.0, 49852.0, 49907.0, 50018.0, 49994.0, 49948.0, 49956.0, 49930.0, 49959.0, 49950.0, 49918.0, 49896.0, 49888.0, 49906.0, 49942.0, 49937.0, 49868.0, 49827.0, 49823.0, 49880.0, 49904.0, 49877.0, 49816.0, 49806.0, 49897.0, 49889.0, 49906.0, 49888.0, 49882.0, 49966.0, 49998.0, 49994.0, 49913.0, 49950.0, 49945.0, 49902.0]
    },
    "slices": {}
  }
}