{
  "AcquisitionMatrixPE": 116,
  "AcquisitionNumber": 1,
  "AcquisitionTime": "15:25:2.680000",
  "BandwidthPerPixelPhaseEncode": 18.539,
  "BaseResolution": 116,
  "BodyPartExamined": "HEAD",
  "ConsistencyInfo": "N4_VD13D_LATEST_20130810",
  "ConversionSoftware": "dcm2niix",
  "ConversionSoftwareVersion": "v1.0.20190410  (JP2:OpenJPEG) (JP-LS:CharLS) GCC5.5.0",
  "DerivedVendorReportedEchoSpacing": 0.000930006,
  "DeviceSerialNumber": "66014",
  "DwellTime": 3e-06,
  "EchoTime": 0.03,
  "EchoTrainLength": 50,
  "EffectiveEchoSpacing": 0.000465003,
  "FlipAngle": 81,
  "ImageComments": "Unaliased_MB3_PE4",
  "ImageOrientationPatientDICOM": [0.999839, -0.0177603, -0.00244991, 0.0174522, 0.995437, -0.0938104],
  "ImageType": [
    "ORIGINAL",
    "PRIMARY",
    "M",
    "MB",
    "ND",
    "MOSAIC"
],
  "ImagingFrequency": 123.261,
  "InPlanePhaseEncodingDirectionDICOM": "COL",
  "InstitutionAddress": "Yiheyuan_Road_5_Beijing_Haidian_CN_100871",
  "InstitutionName": "Peking_Univeristy",
  "InstitutionalDepartmentName": "Department",
  "MRAcquisitionType": "2D",
  "MagneticFieldStrength": 3,
  "Manufacturer": "Siemens",
  "ManufacturersModelName": "Prisma",
  "Modality": "MR",
  "MultibandAccelerationFactor": 3,
  "ParallelReductionFactorInPlane": 2,
  "PartialFourier": 0.875,
  "PatientPosition": "HFS",
  "PercentPhaseFOV": 100,
  "PhaseEncodingDirection": "j-",
  "PhaseEncodingSteps": 101,
  "PhaseResolution": 1,
  "PixelBandwidth": 1435,
  "ProcedureStepDescription": "Research_Projects_64CH",
  "ProtocolName": "mbep2d_bold_MB3_learn6",
  "PulseSequenceDetails": "%CustomerSeq%_cmrr_mbep2d_bold",
  "ReceiveCoilActiveElements": "HC1-6",
  "ReceiveCoilName": "HeadNeck_64",
  "ReconMatrixPE": 116,
  "RefLinesPE": 44,
  "RepetitionTime": 2,
  "SAR": 0.0545361,
  "ScanOptions": "PFP_FS",
  "ScanningSequence": "EP",
  "SequenceName": "epfid2d1_116",
  "SequenceVariant": "SK_SS",
  "SeriesDescription": "mbep2d_bold_MB3_learn6",
  "SeriesNumber": 11,
  "ShimSetting": [-3462, -2118, -1942, 368, 26, -138, 64, 27],
  "SliceThickness": 1.9,
  "SliceTiming": [0, 0.9075, 1.815, 0.7425, 1.65, 0.5775, 1.485, 0.4125, 1.32, 0.2475, 1.155, 0.0825, 0.99, 1.8975, 0.825, 1.7325, 0.66, 1.5675, 0.495, 1.4025, 0.33, 1.2375, 0.165, 1.0725, 0, 0.9075, 1.815, 0.7425, 1.65, 0.5775, 1.485, 0.4125, 1.32, 0.2475, 1.155, 0.0825, 0.99, 1.8975, 0.825, 1.7325, 0.66, 1.5675, 0.495, 1.4025, 0.33, 1.2375, 0.165, 1.0725, 0, 0.9075, 1.815, 0.7425, 1.65, 0.5775, 1.485, 0.4125, 1.32, 0.2475, 1.155, 0.0825, 0.99, 1.8975, 0.825, 1.7325, 0.66, 1.5675, 0.495, 1.4025, 0.33, 1.2375, 0.165, 1.0725],
  "SoftwareVersions": "syngo_MR_D13D",
  "SpacingBetweenSlices": 1.9,
  "StationName": "AWP66014",
  "TaskName": "updating",
  "TotalReadoutTime": 0.0534753,
  "TxRefAmp": 217.28,
  "WipMemBlock": "78e76da1-2ebb-4e79-acff-5c7605341162||Sequence: vd13d/master r/0735857; Nov 19 2014 09:21:40 by eja",
  "dcmmeta_affine": [
    [-1.8962469100952148, 0.033099059015512466, -0.007799172308295965, 107.44214630126953],
    [0.03368331119418144, 1.8878979682922363, -0.1781298816204071, -97.27434539794922],
    [-0.004646374378353357, 0.1779162734746933, 1.891615390777588, -76.77132415771484],
    [0.0, 0.0, 0.0, 1.0]
],
  "dcmmeta_reorient_transform": [
    [0.0, -1.0, 0.0, 115.0],
    [1.0, 0.0, 0.0, 0.0],
    [0.0, 0.0, 1.0, 0.0],
    [0.0, 0.0, 0.0, 1.0]
],
  "dcmmeta_shape": [116, 116, 72, 218],
  "dcmmeta_slice_dim": 2,
  "dcmmeta_version": 0.6,
  "global": {
    "const": {
      "AcquisitionMatrix": [116, 0, 0, 116],
      "AngioFlag": "N",
      "BitsAllocated": 16,
      "BitsStored": 16,
      "BodyPartExamined": "HEAD",
      "Columns": 1044,
      "EchoNumbers": 1,
      "EchoTime": 30.0,
      "EchoTrainLength": 50,
      "FlipAngle": 81.0,
      "HighBit": 15,
      "ImageOrientationPatient": [0.9998392721051, -0.0177602903999, -0.0024499063793, 0.01745223040933, 0.99543710425114, -0.0938103999237],
      "ImagePositionPatient": [-1006.4650592533, -980.18951848324, 28.398113907932],
      "ImageType": [
        "ORIGINAL",
        "PRIMARY",
        "M",
        "MB",
        "ND",
        "MOSAIC"
],
      "ImagedNucleus": "1H",
      "ImagingFrequency": 123.260582,
      "InPlanePhaseEncodingDirection": "COL",
      "LargestImagePixelValue": 65535,
      "MRAcquisitionType": "2D",
      "MagneticFieldStrength": 3.0,
      "Manufacturer": "SIEMENS",
      "ManufacturerModelName": "Prisma",
      "Modality": "MR",
      "NumberOfAverages": 1.0,
      "NumberOfPhaseEncodingSteps": 101,
      "PercentPhaseFieldOfView": 100.0,
      "PercentSampling": 100.0,
      "PerformedProcedureStepStartTime": "142503.536000",
      "PhotometricInterpretation": "MONOCHROME2",
      "PixelBandwidth": 1435.0,
      "PixelRepresentation": 0,
      "PixelSpacing": [1.8965517282486, 1.8965517282486],
      "ProtocolName": "mbep2d_bold_MB3_learn6",
      "RepetitionTime": 2000.0,
      "Rows": 1044,
      "SAR": 0.05453609639506,
      "SamplesPerPixel": 1,
      "ScanOptions": [
        "PFP",
        "FS"
],
      "ScanningSequence": "EP",
      "SequenceName": "epfid2d1_116",
      "SequenceVariant": [
        "SK",
        "SS"
],
      "SeriesDescription": "mbep2d_bold_MB3_learn6",
      "SeriesNumber": 11,
      "SeriesTime": "152515.141000",
      "SliceLocation": -67.753852869719,
      "SliceThickness": 1.8999999761581,
      "SmallestImagePixelValue": 0,
      "SoftwareVersions": "syngo MR D13D",
      "SpacingBetweenSlices": 1.8999999980217,
      "SpecificCharacterSet": "ISO_IR 100",
      "StudyID": "1",
      "StudyTime": "142503.466000",
      "TimeOfLastCalibration": ["123723.000000", "123723.000000"],
      "TransmitCoilName": "Body",
      "VariableFlipAngleFlag": "N",
      "WindowCenterWidthExplanation": "Algo1",
      "dBdt": 0.0},
    "slices": {}
  },
  "time": {
    "samples": {
      "AcquisitionNumber": [1, 2, 3, 4, 5, 6, 7, 8, 9, 10, 11, 12, 13, 14, 15, 16, 17, 18, 19, 20, 21, 22, 23, 24, 25, 26, 27, 28, 29, 30, 31, 32, 33, 34, 35, 36, 37, 38, 39, 40, 41, 42, 43, 44, 45, 46, 47, 48, 49, 50, 51, 52, 53, 54, 55, 56, 57, 58, 59, 60, 61, 62, 63, 64, 65, 66, 67, 68, 69, 70, 71, 72, 73, 74, 75, 76, 77, 78, 79, 80, 81, 82, 83, 84, 85, 86, 87, 88, 89, 90, 91, 92, 93, 94, 95, 96, 97, 98, 99, 100, 101, 102, 103, 104, 105, 106, 107, 108, 109, 110, 111, 112, 113, 114, 115, 116, 117, 118, 119, 120, 121, 122, 123, 124, 125, 126, 127, 128, 129, 130, 131, 132, 133, 134, 135, 136, 137, 138, 139, 140, 141, 142, 143, 144, 145, 146, 147, 148, 149, 150, 151, 152, 153, 154, 155, 156, 157, 158, 159, 160, 161, 162, 163, 164, 165, 166, 167, 168, 169, 170, 171, 172, 173, 174, 175, 176, 177, 178, 179, 180, 181, 182, 183, 184, 185, 186, 187, 188, 189, 190, 191, 192, 193, 194, 195, 196, 197, 198, 199, 200, 201, 202, 203, 204, 205, 206, 207, 208, 209, 210, 211, 212, 213, 214, 215, 216, 217, 218],
      "AcquisitionTime": ["152502.680000", "152504.680000", "152506.680000", "152508.680000", "152510.680000", "152512.680000", "152514.680000", "152516.680000", "152518.680000", "152520.680000", "152522.680000", "152524.680000", "152526.680000", "152528.680000", "152530.680000", "152532.680000", "152534.680000", "152536.680000", "152538.680000", "152540.680000", "152542.680000", "152544.680000", "152546.680000", "152548.680000", "152550.680000", "152552.680000", "152554.680000", "152556.680000", "152558.680000", "152600.680000", "152602.680000", "152604.680000", "152606.680000", "152608.680000", "152610.680000", "152612.680000", "152614.680000", "152616.680000", "152618.680000", "152620.680000", "152622.680000", "152624.680000", "152626.680000", "152628.680000", "152630.680000", "152632.680000", "152634.680000", "152636.680000", "152638.680000", "152640.680000", "152642.680000", "152644.680000", "152646.680000", "152648.680000", "152650.680000", "152652.680000", "152654.680000", "152656.680000", "152658.680000", "152700.680000", "152702.680000", "152704.680000", "152706.680000", "152708.680000", "152710.680000", "152712.680000", "152714.680000", "152716.680000", "152718.680000", "152720.680000", "152722.680000", "152724.680000", "152726.680000", "152728.680000", "152730.680000", "152732.680000", "152734.680000", "152736.680000", "152738.680000", "152740.680000", "152742.680000", "152744.680000", "152746.680000", "152748.680000", "152750.680000", "152752.680000", "152754.680000", "152756.682500", "152758.682500", "152800.682500", "152802.682500", "152804.682500", "152806.682500", "152808.682500", "152810.682500", "152812.682500", "152814.682500", "152816.682500", "152818.682500", "152820.682500", "152822.682500", "152824.682500", "152826.682500", "152828.682500", "152830.682500", "152832.682500", "152834.682500", "152836.682500", "152838.682500", "152840.682500", "152842.682500", "152844.682500", "152846.682500", "152848.682500", "152850.682500", "152852.682500", "152854.682500", "152856.682500", "152858.682500", "152900.682500", "152902.682500", "152904.682500", "152906.682500", "152908.682500", "152910.682500", "152912.682500", "152914.682500", "152916.682500", "152918.682500", "152920.682500", "152922.682500", "152924.682500", "152926.682500", "152928.682500", "152930.682500", "152932.682500", "152934.682500", "152936.682500", "152938.682500", "152940.682500", "152942.682500", "152944.682500", "152946.682500", "152948.682500", "152950.682500", "152952.682500", "152954.682500", "152956.682500", "152958.682500", "153000.682500", "153002.682500", "153004.682500", "153006.682500", "153008.682500", "153010.682500", "153012.682500", "153014.682500", "153016.682500", "153018.682500", "153020.682500", "153022.682500", "153024.682500", "153026.682500", "153028.682500", "153030.682500", "153032.682500", "153034.682500", "153036.682500", "153038.682500", "153040.682500", "153042.682500", "153044.682500", "153046.682500", "153048.682500", "153050.682500", "153052.682500", "153054.682500", "153056.682500", "153058.682500", "153100.682500", "153102.682500", "153104.682500", "153106.682500", "153108.682500", "153110.682500", "153112.682500", "153114.682500", "153116.682500", "153118.682500", "153120.682500", "153122.682500", "153124.682500", "153126.682500", "153128.682500", "153130.682500", "153132.682500", "153134.682500", "153136.682500", "153138.682500", "153140.682500", "153142.682500", "153144.682500", "153146.682500", "153148.682500", "153150.682500", "153152.682500", "153154.682500", "153156.682500", "153158.682500", "153200.682500", "153202.682500", "153204.682500", "153206.682500", "153208.682500", "153210.682500", "153212.682500", "153214.682500", "153216.682500"],
      "ContentTime": ["152515.147000", "152516.140000", "152516.144000", "152517.139000", "152517.143000", "152518.140000", "152518.144000", "152519.641000", "152521.640000", "152523.640000", "152525.639000", "152527.639000", "152529.640000", "152531.641000", "152533.641000", "152535.641000", "152537.640000", "152539.641000", "152541.640000", "152543.639000", "152545.639000", "152547.640000", "152549.640000", "152551.639000", "152553.640000", "152555.640000", "152557.642000", "152559.644000", "152601.639000", "152603.639000", "152605.640000", "152607.640000", "152609.640000", "152611.640000", "152613.640000", "152615.641000", "152617.639000", "152619.640000", "152621.640000", "152623.639000", "152625.640000", "152627.639000", "152629.640000", "152631.639000", "152633.639000", "152635.640000", "152637.638000", "152639.640000", "152641.639000", "152643.639000", "152645.640000", "152647.640000", "152649.639000", "152651.640000", "152653.639000", "152655.639000", "152657.640000", "152659.639000", "152701.640000", "152703.641000", "152705.641000", "152707.641000", "152709.639000", "152711.639000", "152713.639000", "152715.639000", "152717.641000", "152719.661000", "152721.641000", "152723.639000", "152725.640000", "152727.639000", "152729.638000", "152731.639000", "152733.640000", "152735.640000", "152737.639000", "152739.640000", "152741.639000", "152743.640000", "152745.638000", "152747.638000", "152749.640000", "152751.640000", "152753.640000", "152755.660000", "152757.639000", "152759.639000", "152801.640000", "152803.639000", "152805.638000", "152807.641000", "152809.639000", "152811.640000", "152813.640000", "152815.640000", "152817.639000", "152819.640000", "152821.638000", "152823.639000", "152825.639000", "152827.640000", "152829.640000", "152831.639000", "152833.640000", "152835.641000", "152837.640000", "152839.638000", "152841.638000", "152843.639000", "152845.639000", "152847.641000", "152849.640000", "152851.641000", "152853.639000", "152855.639000", "152857.639000", "152859.640000", "152901.640000", "152903.641000", "152905.640000", "152907.640000", "152909.641000", "152911.640000", "152913.638000", "152915.639000", "152917.640000", "152919.640000", "152921.640000", "152923.640000", "152925.640000", "152927.640000", "152929.640000", "152931.640000", "152933.639000", "152935.639000", "152937.640000", "152939.640000", "152941.639000", "152943.640000", "152945.640000", "152947.640000", "152949.639000", "152951.639000", "152953.640000", "152955.640000", "152957.640000", "152959.641000", "153001.640000", "153003.640000", "153005.640000", "153007.639000", "153009.640000", "153011.639000", "153013.641000", "153015.641000", "153017.640000", "153019.640000", "153021.640000", "153023.639000", "153025.638000", "153027.640000", "153029.642000", "153031.640000", "153033.639000", "153035.645000", "153037.641000", "153039.639000", "153041.639000", "153043.640000", "153045.640000", "153047.640000", "153049.640000", "153051.641000", "153053.640000", "153055.640000", "153057.640000", "153059.640000", "153101.638000", "153103.640000", "153105.641000", "153107.640000", "153109.640000", "153111.640000", "153113.640000", "153115.639000", "153117.638000", "153119.640000", "153121.640000", "153123.640000", "153125.640000", "153127.641000", "153129.640000", "153131.640000", "153133.639000", "153135.639000", "153137.640000", "153139.640000", "153141.640000", "153143.639000", "153145.640000", "153147.640000", "153149.640000", "153151.639000", "153153.638000", "153155.641000", "153157.640000", "153159.640000", "153201.640000", "153203.640000", "153205.640000", "153207.640000", "153209.639000", "153211.641000", "153213.640000", "153215.640000", "153217.640000", "153219.189000"],
      "InstanceCreationTime": ["152515.147000", "152516.140000", "152516.144000", "152517.139000", "152517.143000", "152518.140000", "152518.144000", "152519.641000", "152521.640000", "152523.640000", "152525.639000", "152527.639000", "152529.640000", "152531.641000", "152533.641000", "152535.641000", "152537.640000", "152539.641000", "152541.640000", "152543.639000", "152545.639000", "152547.640000", "152549.640000", "152551.639000", "152553.640000", "152555.640000", "152557.642000", "152559.644000", "152601.639000", "152603.639000", "152605.640000", "152607.640000", "152609.640000", "152611.640000", "152613.640000", "152615.641000", "152617.639000", "152619.640000", "152621.640000", "152623.639000", "152625.640000", "152627.639000", "152629.640000", "152631.639000", "152633.639000", "152635.640000", "152637.638000", "152639.640000", "152641.639000", "152643.639000", "152645.640000", "152647.640000", "152649.639000", "152651.640000", "152653.639000", "152655.639000", "152657.640000", "152659.639000", "152701.640000", "152703.641000", "152705.641000", "152707.641000", "152709.639000", "152711.639000", "152713.639000", "152715.639000", "152717.641000", "152719.661000", "152721.641000", "152723.639000", "152725.640000", "152727.639000", "152729.638000", "152731.639000", "152733.640000", "152735.640000", "152737.639000", "152739.640000", "152741.639000", "152743.640000", "152745.638000", "152747.638000", "152749.640000", "152751.640000", "152753.640000", "152755.660000", "152757.639000", "152759.639000", "152801.640000", "152803.639000", "152805.638000", "152807.641000", "152809.639000", "152811.640000", "152813.640000", "152815.640000", "152817.639000", "152819.640000", "152821.638000", "152823.639000", "152825.639000", "152827.640000", "152829.640000", "152831.639000", "152833.640000", "152835.641000", "152837.640000", "152839.638000", "152841.638000", "152843.639000", "152845.639000", "152847.641000", "152849.640000", "152851.641000", "152853.639000", "152855.639000", "152857.639000", "152859.640000", "152901.640000", "152903.641000", "152905.640000", "152907.640000", "152909.641000", "152911.640000", "152913.638000", "152915.639000", "152917.640000", "152919.640000", "152921.640000", "152923.640000", "152925.640000", "152927.640000", "152929.640000", "152931.640000", "152933.639000", "152935.639000", "152937.640000", "152939.640000", "152941.639000", "152943.640000", "152945.640000", "152947.640000", "152949.639000", "152951.639000", "152953.640000", "152955.640000", "152957.640000", "152959.641000", "153001.640000", "153003.640000", "153005.640000", "153007.639000", "153009.640000", "153011.639000", "153013.641000", "153015.641000", "153017.640000", "153019.640000", "153021.640000", "153023.639000", "153025.638000", "153027.640000", "153029.642000", "153031.640000", "153033.639000", "153035.645000", "153037.641000", "153039.639000", "153041.639000", "153043.640000", "153045.640000", "153047.640000", "153049.640000", "153051.641000", "153053.640000", "153055.640000", "153057.640000", "153059.640000", "153101.638000", "153103.640000", "153105.641000", "153107.640000", "153109.640000", "153111.640000", "153113.640000", "153115.639000", "153117.638000", "153119.640000", "153121.640000", "153123.640000", "153125.640000", "153127.641000", "153129.640000", "153131.640000", "153133.639000", "153135.639000", "153137.640000", "153139.640000", "153141.640000", "153143.639000", "153145.640000", "153147.640000", "153149.640000", "153151.639000", "153153.638000", "153155.641000", "153157.640000", "153159.640000", "153201.640000", "153203.640000", "153205.640000", "153207.640000", "153209.639000", "153211.641000", "153213.640000", "153215.640000", "153217.640000", "153219.189000"],
      "InstanceNumber": [1, 2, 3, 4, 5, 6, 7, 8, 9, 10, 11, 12, 13, 14, 15, 16, 17, 18, 19, 20, 21, 22, 23, 24, 25, 26, 27, 28, 29, 30, 31, 32, 33, 34, 35, 36, 37, 38, 39, 40, 41, 42, 43, 44, 45, 46, 47, 48, 49, 50, 51, 52, 53, 54, 55, 56, 57, 58, 59, 60, 61, 62, 63, 64, 65, 66, 67, 68, 69, 70, 71, 72, 73, 74, 75, 76, 77, 78, 79, 80, 81, 82, 83, 84, 85, 86, 87, 88, 89, 90, 91, 92, 93, 94, 95, 96, 97, 98, 99, 100, 101, 102, 103, 104, 105, 106, 107, 108, 109, 110, 111, 112, 113, 114, 115, 116, 117, 118, 119, 120, 121, 122, 123, 124, 125, 126, 127, 128, 129, 130, 131, 132, 133, 134, 135, 136, 137, 138, 139, 140, 141, 142, 143, 144, 145, 146, 147, 148, 149, 150, 151, 152, 153, 154, 155, 156, 157, 158, 159, 160, 161, 162, 163, 164, 165, 166, 167, 168, 169, 170, 171, 172, 173, 174, 175, 176, 177, 178, 179, 180, 181, 182, 183, 184, 185, 186, 187, 188, 189, 190, 191, 192, 193, 194, 195, 196, 197, 198, 199, 200, 201, 202, 203, 204, 205, 206, 207, 208, 209, 210, 211, 212, 213, 214, 215, 216, 217, 218],
      "WindowCenter": [16746.0, 16719.0, 16723.0, 16711.0, 16695.0, 16697.0, 16675.0, 16696.0, 16696.0, 16689.0, 16678.0, 16675.0, 16666.0, 16682.0, 16694.0, 16702.0, 16693.0, 16686.0, 16693.0, 16682.0, 16666.0, 16666.0, 16686.0, 16679.0, 16691.0, 16701.0, 16695.0, 16689.0, 16689.0, 16683.0, 16681.0, 16670.0, 16677.0, 16689.0, 16673.0, 16670.0, 16675.0, 16683.0, 16679.0, 16669.0, 16685.0, 16667.0, 16676.0, 16687.0, 16684.0, 16666.0, 16658.0, 16684.0, 16670.0, 16687.0, 16682.0, 16681.0, 16679.0, 16702.0, 16679.0, 16693.0, 16698.0, 16685.0, 16677.0, 16673.0, 16686.0, 16671.0, 16665.0, 16668.0, 16672.0, 16687.0, 16682.0, 16685.0, 16669.0, 16679.0, 16685.0, 16685.0, 16698.0, 16697.0, 16688.0, 16704.0, 16690.0, 16670.0, 16677.0, 16669.0, 16695.0, 16673.0, 16680.0, 16675.0, 16685.0, 16678.0, 16687.0, 16693.0, 16689.0, 16689.0, 16690.0, 16672.0, 16686.0, 16695.0, 16707.0, 16695.0, 16693.0, 16680.0, 16683.0, 16674.0, 16683.0, 16680.0, 16683.0, 16679.0, 16688.0, 16675.0, 16686.0, 16694.0, 16687.0, 16680.0, 16697.0, 16700.0, 16683.0, 16700.0, 16698.0, 16693.0, 16682.0, 16661.0, 16684.0, 16700.0, 16693.0, 16707.0, 16704.0, 16711.0, 16693.0, 16676.0, 16690.0, 16696.0, 16706.0, 16687.0, 16696.0, 16696.0, 16702.0, 16675.0, 16687.0, 16698.0, 16706.0, 16687.0, 16704.0, 16709.0, 16702.0, 16700.0, 16695.0, 16678.0, 16680.0, 16684.0, 16716.0, 16689.0, 16705.0, 16710.0, 16714.0, 16696.0, 16691.0, 16708.0, 16724.0, 16723.0, 16718.0, 16709.0, 16710.0, 16718.0, 16700.0, 16708.0, 16715.0, 16710.0, 16707.0, 16713.0, 16717.0, 16703.0, 16705.0, 16677.0, 16697.0, 16702.0, 16703.0, 16706.0, 16686.0, 16676.0, 16682.0, 16700.0, 16722.0, 16709.0, 16699.0, 16707.0, 16701.0, 16694.0, 16709.0, 16706.0, 16712.0, 16701.0, 16724.0, 16709.0, 16706.0, 16700.0, 16705.0, 16718.0, 16708.0, 16707.0, 16708.0, 16694.0, 16705.0, 16721.0, 16735.0, 16719.0, 16715.0, 16696.0, 16717.0, 16703.0, 16718.0, 16712.0, 16711.0, 16709.0, 16705.0, 16702.0, 16697.0, 16718.0, 16730.0, 16724.0, 16704.0, 16720.0],
      "WindowWidth": [47717.0, 47656.0, 47592.0, 47518.0, 47481.0, 47482.0, 47520.0, 47520.0, 47469.0, 47450.0, 47428.0, 47440.0, 47484.0, 47497.0, 47545.0, 47486.0, 47440.0, 47408.0, 47389.0, 47369.0, 47408.0, 47434.0, 47435.0, 47483.0, 47503.0, 47472.0, 47442.0, 47426.0, 47334.0, 47329.0, 47353.0, 47385.0, 47441.0, 47489.0, 47477.0, 47436.0, 47402.0, 47421.0, 47393.0, 47386.0, 47383.0, 47408.0, 47375.0, 47398.0, 47420.0, 47356.0, 47336.0, 47356.0, 47411.0, 47425.0, 47447.0, 47445.0, 47393.0, 47383.0, 47456.0, 47454.0, 47457.0, 47474.0, 47468.0, 47451.0, 47397.0, 47399.0, 47421.0, 47435.0, 47426.0, 47425.0, 47434.0, 47383.0, 47371.0, 47352.0, 47331.0, 47409.0, 47484.0, 47483.0, 47451.0, 47449.0, 47427.0, 47374.0, 47403.0, 47411.0, 47351.0, 47336.0, 47379.0, 47468.0, 47435.0, 47379.0, 47412.0, 47455.0, 47465.0, 47439.0, 47440.0, 47519.0, 47515.0, 47508.0, 47516.0, 47520.0, 47454.0, 47431.0, 47434.0, 47466.0, 47447.0, 47407.0, 47329.0, 47367.0, 47465.0, 47533.0, 47476.0, 47416.0, 47411.0, 47446.0, 47420.0, 47395.0, 47422.0, 47419.0, 47380.0, 47338.0, 47355.0, 47456.0, 47501.0, 47459.0, 47429.0, 47463.0, 47488.0, 47455.0, 47467.0, 47481.0, 47477.0, 47442.0, 47372.0, 47425.0, 47495.0, 47533.0, 47485.0, 47452.0, 47462.0, 47510.0, 47530.0, 47516.0, 47514.0, 47491.0, 47486.0, 47497.0, 47468.0, 47432.0, 47458.0, 47461.0, 47445.0, 47477.0, 47502.0, 47505.0, 47429.0, 47352.0, 47425.0, 47542.0, 47517.0, 47463.0, 47420.0, 47451.0, 47453.0, 47510.0, 47524.0, 47490.0, 47469.0, 47531.0, 47543.0, 47547.0, 47497.0, 47437.0, 47425.0, 47455.0, 47456.0, 47486.0, 47502.0, 47516.0, 47488.0, 47482.0, 47500.0, 47565.0, 47569.0, 47545.0, 47510.0, 47503.0, 47539.0, 47560.0, 47570.0, 47594.0, 47597.0, 47538.0, 47490.0, 47441.0, 47399.0, 47421.0, 47502.0, 47538.0, 47493.0, 47439.0, 47439.0, 47509.0, 47557.0, 47593.0, 47539.0, 47487.0, 47447.0, 47536.0, 47616.0, 47617.0, 47563.0, 47533.0, 47521.0, 47520.0, 47492.0, 47477.0, 47589.0, 47617.0, 47572.0, 47542.0, 47526.0, 47575.0]
    },
    "slices": {}
  }
}