{
  "AcquisitionMatrixPE": 116,
  "AcquisitionNumber": 1,
  "AcquisitionTime": "15:16:36.755000",
  "BandwidthPerPixelPhaseEncode": 18.539,
  "BaseResolution": 116,
  "BodyPartExamined": "HEAD",
  "ConsistencyInfo": "N4_VD13D_LATEST_20130810",
  "ConversionSoftware": "dcm2niix",
  "ConversionSoftwareVersion": "v1.0.20190410  (JP2:OpenJPEG) (JP-LS:CharLS) GCC5.5.0",
  "DerivedVendorReportedEchoSpacing": 0.000930006,
  "DeviceSerialNumber": "66014",
  "DwellTime": 3e-06,
  "EchoTime": 0.03,
  "EchoTrainLength": 50,
  "EffectiveEchoSpacing": 0.000465003,
  "FlipAngle": 81,
  "ImageComments": "Unaliased_MB3_PE4",
  "ImageOrientationPatientDICOM": [0.999839, -0.0177603, -0.00244991, 0.0174522, 0.995437, -0.0938104],
  "ImageType": [
    "ORIGINAL",
    "PRIMARY",
    "M",
    "MB",
    "ND",
    "MOSAIC"
],
  "ImagingFrequency": 123.261,
  "InPlanePhaseEncodingDirectionDICOM": "COL",
  "InstitutionAddress": "Yiheyuan_Road_5_Beijing_Haidian_CN_100871",
  "InstitutionName": "Peking_Univeristy",
  "InstitutionalDepartmentName": "Department",
  "MRAcquisitionType": "2D",
  "MagneticFieldStrength": 3,
  "Manufacturer": "Siemens",
  "ManufacturersModelName": "Prisma",
  "Modality": "MR",
  "MultibandAccelerationFactor": 3,
  "ParallelReductionFactorInPlane": 2,
  "PartialFourier": 0.875,
  "PatientPosition": "HFS",
  "PercentPhaseFOV": 100,
  "PhaseEncodingDirection": "j-",
  "PhaseEncodingSteps": 101,
  "PhaseResolution": 1,
  "PixelBandwidth": 1435,
  "ProcedureStepDescription": "Research_Projects_64CH",
  "ProtocolName": "mbep2d_bold_MB3_learn5",
  "PulseSequenceDetails": "%CustomerSeq%_cmrr_mbep2d_bold",
  "ReceiveCoilActiveElements": "HC1-6",
  "ReceiveCoilName": "HeadNeck_64",
  "ReconMatrixPE": 116,
  "RefLinesPE": 44,
  "RepetitionTime": 2,
  "SAR": 0.0545361,
  "ScanOptions": "PFP_FS",
  "ScanningSequence": "EP",
  "SequenceName": "epfid2d1_116",
  "SequenceVariant": "SK_SS",
  "SeriesDescription": "mbep2d_bold_MB3_learn5",
  "SeriesNumber": 10,
  "ShimSetting": [-3462, -2118, -1942, 368, 26, -138, 64, 27],
  "SliceThickness": 1.9,
  "SliceTiming": [0, 0.9075, 1.815, 0.7425, 1.65, 0.5775, 1.485, 0.4125, 1.32, 0.2475, 1.155, 0.0825, 0.99, 1.8975, 0.825, 1.7325, 0.66, 1.5675, 0.495, 1.4025, 0.33, 1.2375, 0.165, 1.0725, 0, 0.9075, 1.815, 0.7425, 1.65, 0.5775, 1.485, 0.4125, 1.32, 0.2475, 1.155, 0.0825, 0.99, 1.8975, 0.825, 1.7325, 0.66, 1.5675, 0.495, 1.4025, 0.33, 1.2375, 0.165, 1.0725, 0, 0.9075, 1.815, 0.7425, 1.65, 0.5775, 1.485, 0.4125, 1.32, 0.2475, 1.155, 0.0825, 0.99, 1.8975, 0.825, 1.7325, 0.66, 1.5675, 0.495, 1.4025, 0.33, 1.2375, 0.165, 1.0725],
  "SoftwareVersions": "syngo_MR_D13D",
  "SpacingBetweenSlices": 1.9,
  "StationName": "AWP66014",
  "TaskName": "updating",
  "TotalReadoutTime": 0.0534753,
  "TxRefAmp": 217.28,
  "WipMemBlock": "560a308a-67b5-4d41-86f0-a953cfcb3b64||Sequence: vd13d/master r/0735857; Nov 19 2014 09:21:40 by eja",
  "dcmmeta_affine": [
    [-1.8962469100952148, 0.033099059015512466, -0.007799172308295965, 107.44214630126953],
    [0.03368331119418144, 1.8878979682922363, -0.1781298816204071, -97.27434539794922],
    [-0.004646374378353357, 0.1779162734746933, 1.891615390777588, -76.77132415771484],
    [0.0, 0.0, 0.0, 1.0]
],
  "dcmmeta_reorient_transform": [
    [0.0, -1.0, 0.0, 115.0],
    [1.0, 0.0, 0.0, 0.0],
    [0.0, 0.0, 1.0, 0.0],
    [0.0, 0.0, 0.0, 1.0]
],
  "dcmmeta_shape": [116, 116, 72, 218],
  "dcmmeta_slice_dim": 2,
  "dcmmeta_version": 0.6,
  "global": {
    "const": {
      "AcquisitionMatrix": [116, 0, 0, 116],
      "AngioFlag": "N",
      "BitsAllocated": 16,
      "BitsStored": 16,
      "BodyPartExamined": "HEAD",
      "Columns": 1044,
      "EchoNumbers": 1,
      "EchoTime": 30.0,
      "EchoTrainLength": 50,
      "FlipAngle": 81.0,
      "HighBit": 15,
      "ImageOrientationPatient": [0.9998392721051, -0.0177602903999, -0.0024499063793, 0.01745223040933, 0.99543710425114, -0.0938103999237],
      "ImagePositionPatient": [-1006.4650592533, -980.18951848324, 28.398113907932],
      "ImageType": [
        "ORIGINAL",
        "PRIMARY",
        "M",
        "MB",
        "ND",
        "MOSAIC"
],
      "ImagedNucleus": "1H",
      "ImagingFrequency": 123.260581,
      "InPlanePhaseEncodingDirection": "COL",
      "LargestImagePixelValue": 65535,
      "MRAcquisitionType": "2D",
      "MagneticFieldStrength": 3.0,
      "Manufacturer": "SIEMENS",
      "ManufacturerModelName": "Prisma",
      "Modality": "MR",
      "NumberOfAverages": 1.0,
      "NumberOfPhaseEncodingSteps": 101,
      "PercentPhaseFieldOfView": 100.0,
      "PercentSampling": 100.0,
      "PerformedProcedureStepStartTime": "142503.536000",
      "PhotometricInterpretation": "MONOCHROME2",
      "PixelBandwidth": 1435.0,
      "PixelRepresentation": 0,
      "PixelSpacing": [1.8965517282486, 1.8965517282486],
      "ProtocolName": "mbep2d_bold_MB3_learn5",
      "RepetitionTime": 2000.0,
      "Rows": 1044,
      "SAR": 0.05453609639506,
      "SamplesPerPixel": 1,
      "ScanOptions": [
        "PFP",
        "FS"
],
      "ScanningSequence": "EP",
      "SequenceName": "epfid2d1_116",
      "SequenceVariant": [
        "SK",
        "SS"
],
      "SeriesDescription": "mbep2d_bold_MB3_learn5",
      "SeriesNumber": 10,
      "SeriesTime": "151649.029000",
      "SliceLocation": -67.753852869719,
      "SliceThickness": 1.8999999761581,
      "SmallestImagePixelValue": 0,
      "SoftwareVersions": "syngo MR D13D",
      "SpacingBetweenSlices": 1.8999999980217,
      "SpecificCharacterSet": "ISO_IR 100",
      "StudyID": "1",
      "StudyTime": "142503.466000",
      "TimeOfLastCalibration": ["123723.000000", "123723.000000"],
      "TransmitCoilName": "Body",
      "VariableFlipAngleFlag": "N",
      "WindowCenterWidthExplanation": "Algo1",
      "dBdt": 0.0},
    "slices": {}
  },
  "time": {
    "samples": {
      "AcquisitionNumber": [1, 2, 3, 4, 5, 6, 7, 8, 9, 10, 11, 12, 13, 14, 15, 16, 17, 18, 19, 20, 21, 22, 23, 24, 25, 26, 27, 28, 29, 30, 31, 32, 33, 34, 35, 36, 37, 38, 39, 40, 41, 42, 43, 44, 45, 46, 47, 48, 49, 50, 51, 52, 53, 54, 55, 56, 57, 58, 59, 60, 61, 62, 63, 64, 65, 66, 67, 68, 69, 70, 71, 72, 73, 74, 75, 76, 77, 78, 79, 80, 81, 82, 83, 84, 85, 86, 87, 88, 89, 90, 91, 92, 93, 94, 95, 96, 97, 98, 99, 100, 101, 102, 103, 104, 105, 106, 107, 108, 109, 110, 111, 112, 113, 114, 115, 116, 117, 118, 119, 120, 121, 122, 123, 124, 125, 126, 127, 128, 129, 130, 131, 132, 133, 134, 135, 136, 137, 138, 139, 140, 141, 142, 143, 144, 145, 146, 147, 148, 149, 150, 151, 152, 153, 154, 155, 156, 157, 158, 159, 160, 161, 162, 163, 164, 165, 166, 167, 168, 169, 170, 171, 172, 173, 174, 175, 176, 177, 178, 179, 180, 181, 182, 183, 184, 185, 186, 187, 188, 189, 190, 191, 192, 193, 194, 195, 196, 197, 198, 199, 200, 201, 202, 203, 204, 205, 206, 207, 208, 209, 210, 211, 212, 213, 214, 215, 216, 217, 218],
      "AcquisitionTime": ["151636.755000", "151638.755000", "151640.755000", "151642.755000", "151644.755000", "151646.755000", "151648.755000", "151650.755000", "151652.755000", "151654.755000", "151656.755000", "151658.755000", "151700.755000", "151702.755000", "151704.755000", "151706.755000", "151708.755000", "151710.755000", "151712.755000", "151714.755000", "151716.755000", "151718.755000", "151720.755000", "151722.755000", "151724.755000", "151726.755000", "151728.755000", "151730.755000", "151732.755000", "151734.755000", "151736.755000", "151738.755000", "151740.755000", "151742.755000", "151744.755000", "151746.755000", "151748.755000", "151750.755000", "151752.755000", "151754.755000", "151756.755000", "151758.755000", "151800.755000", "151802.755000", "151804.755000", "151806.755000", "151808.755000", "151810.755000", "151812.755000", "151814.755000", "151816.755000", "151818.755000", "151820.755000", "151822.755000", "151824.755000", "151826.755000", "151828.755000", "151830.755000", "151832.755000", "151834.755000", "151836.755000", "151838.755000", "151840.755000", "151842.755000", "151844.755000", "151846.755000", "151848.755000", "151850.755000", "151852.755000", "151854.755000", "151856.755000", "151858.755000", "151900.755000", "151902.755000", "151904.755000", "151906.755000", "151908.755000", "151910.755000", "151912.755000", "151914.755000", "151916.755000", "151918.755000", "151920.755000", "151922.755000", "151924.755000", "151926.755000", "151928.755000", "151930.755000", "151932.755000", "151934.755000", "151936.755000", "151938.755000", "151940.755000", "151942.755000", "151944.755000", "151946.755000", "151948.755000", "151950.755000", "151952.755000", "151954.755000", "151956.755000", "151958.755000", "152000.755000", "152002.755000", "152004.755000", "152006.755000", "152008.755000", "152010.755000", "152012.755000", "152014.755000", "152016.755000", "152018.755000", "152020.755000", "152022.755000", "152024.755000", "152026.755000", "152028.755000", "152030.755000", "152032.755000", "152034.755000", "152036.755000", "152038.755000", "152040.755000", "152042.755000", "152044.755000", "152046.755000", "152048.755000", "152050.755000", "152052.755000", "152054.755000", "152056.755000", "152058.755000", "152100.755000", "152102.755000", "152104.755000", "152106.755000", "152108.755000", "152110.755000", "152112.755000", "152114.755000", "152116.755000", "152118.755000", "152120.755000", "152122.755000", "152124.755000", "152126.755000", "152128.755000", "152130.755000", "152132.755000", "152134.755000", "152136.755000", "152138.755000", "152140.755000", "152142.755000", "152144.755000", "152146.755000", "152148.755000", "152150.755000", "152152.755000", "152154.755000", "152156.755000", "152158.755000", "152200.755000", "152202.755000", "152204.757500", "152206.757500", "152208.757500", "152210.757500", "152212.757500", "152214.757500", "152216.757500", "152218.757500", "152220.757500", "152222.757500", "152224.757500", "152226.757500", "152228.757500", "152230.757500", "152232.757500", "152234.757500", "152236.757500", "152238.757500", "152240.757500", "152242.757500", "152244.757500", "152246.757500", "152248.757500", "152250.757500", "152252.757500", "152254.757500", "152256.757500", "152258.757500", "152300.757500", "152302.757500", "152304.757500", "152306.757500", "152308.757500", "152310.757500", "152312.757500", "152314.757500", "152316.757500", "152318.757500", "152320.757500", "152322.757500", "152324.757500", "152326.757500", "152328.757500", "152330.757500", "152332.757500", "152334.757500", "152336.757500", "152338.757500", "152340.757500", "152342.757500", "152344.757500", "152346.757500", "152348.757500", "152350.757500"],
      "ContentTime": ["151649.036000", "151650.015000", "151650.019000", "151651.015000", "151652.015000", "151652.019000", "151653.015000", "151654.014000", "151656.016000", "151658.016000", "151700.016000", "151702.016000", "151704.017000", "151706.016000", "151708.016000", "151710.015000", "151712.016000", "151714.016000", "151716.016000", "151718.016000", "151720.017000", "151722.018000", "151724.016000", "151726.015000", "151728.016000", "151730.016000", "151732.016000", "151734.017000", "151736.016000", "151738.017000", "151740.017000", "151742.016000", "151744.016000", "151746.016000", "151748.016000", "151750.017000", "151752.016000", "151754.016000", "151756.017000", "151758.017000", "151800.016000", "151802.017000", "151804.015000", "151806.016000", "151808.015000", "151810.016000", "151812.016000", "151814.017000", "151816.016000", "151818.016000", "151820.017000", "151822.016000", "151824.016000", "151826.016000", "151828.016000", "151830.017000", "151832.018000", "151834.016000", "151836.016000", "151838.017000", "151840.016000", "151842.016000", "151844.016000", "151846.016000", "151848.017000", "151850.017000", "151852.016000", "151854.016000", "151856.016000", "151858.016000", "151900.016000", "151902.016000", "151904.015000", "151906.016000", "151908.016000", "151910.015000", "151912.015000", "151914.015000", "151916.015000", "151918.015000", "151920.015000", "151922.015000", "151924.016000", "151926.015000", "151928.015000", "151930.015000", "151932.015000", "151934.015000", "151936.015000", "151938.015000", "151940.016000", "151942.016000", "151944.015000", "151946.015000", "151948.015000", "151950.015000", "151952.015000", "151954.015000", "151956.015000", "151958.016000", "152000.016000", "152002.015000", "152004.015000", "152006.015000", "152008.015000", "152010.014000", "152012.015000", "152014.015000", "152016.015000", "152018.016000", "152020.015000", "152022.015000", "152024.015000", "152026.015000", "152028.015000", "152030.015000", "152032.015000", "152034.016000", "152036.015000", "152038.015000", "152040.015000", "152042.016000", "152044.015000", "152046.015000", "152048.015000", "152050.016000", "152052.016000", "152054.015000", "152056.015000", "152058.014000", "152100.015000", "152102.015000", "152104.015000", "152106.015000", "152108.016000", "152110.016000", "152112.016000", "152114.015000", "152116.015000", "152118.016000", "152120.015000", "152122.015000", "152124.015000", "152126.016000", "152128.015000", "152130.038000", "152132.015000", "152134.015000", "152136.015000", "152138.015000", "152140.016000", "152142.015000", "152144.016000", "152146.015000", "152148.015000", "152150.016000", "152152.015000", "152154.016000", "152156.016000", "152158.016000", "152200.016000", "152202.016000", "152204.016000", "152206.016000", "152208.016000", "152210.024000", "152212.016000", "152214.016000", "152216.015000", "152218.016000", "152220.016000", "152222.016000", "152224.015000", "152226.015000", "152228.015000", "152230.016000", "152232.016000", "152234.016000", "152236.017000", "152238.017000", "152240.016000", "152242.015000", "152244.016000", "152246.015000", "152248.016000", "152250.016000", "152252.016000", "152254.017000", "152256.016000", "152258.016000", "152300.016000", "152302.016000", "152304.016000", "152306.015000", "152308.016000", "152310.017000", "152312.017000", "152314.016000", "152316.016000", "152318.016000", "152320.016000", "152322.016000", "152324.015000", "152326.016000", "152328.017000", "152330.017000", "152332.016000", "152334.016000", "152336.016000", "152338.016000", "152340.016000", "152342.016000", "152344.016000", "152346.017000", "152348.017000", "152350.016000", "152352.016000", "152353.624000"],
      "InstanceCreationTime": ["151649.036000", "151650.015000", "151650.019000", "151651.015000", "151652.015000", "151652.019000", "151653.015000", "151654.014000", "151656.016000", "151658.016000", "151700.016000", "151702.016000", "151704.017000", "151706.016000", "151708.016000", "151710.015000", "151712.016000", "151714.016000", "151716.016000", "151718.016000", "151720.017000", "151722.018000", "151724.016000", "151726.015000", "151728.016000", "151730.016000", "151732.016000", "151734.017000", "151736.016000", "151738.017000", "151740.017000", "151742.016000", "151744.016000", "151746.016000", "151748.016000", "151750.017000", "151752.016000", "151754.016000", "151756.017000", "151758.017000", "151800.016000", "151802.017000", "151804.015000", "151806.016000", "151808.015000", "151810.016000", "151812.016000", "151814.017000", "151816.016000", "151818.016000", "151820.017000", "151822.016000", "151824.016000", "151826.016000", "151828.016000", "151830.017000", "151832.018000", "151834.016000", "151836.016000", "151838.017000", "151840.016000", "151842.016000", "151844.016000", "151846.016000", "151848.017000", "151850.017000", "151852.016000", "151854.016000", "151856.016000", "151858.016000", "151900.016000", "151902.016000", "151904.015000", "151906.016000", "151908.016000", "151910.015000", "151912.015000", "151914.015000", "151916.015000", "151918.015000", "151920.015000", "151922.015000", "151924.016000", "151926.015000", "151928.015000", "151930.015000", "151932.015000", "151934.015000", "151936.015000", "151938.015000", "151940.016000", "151942.016000", "151944.015000", "151946.015000", "151948.015000", "151950.015000", "151952.015000", "151954.015000", "151956.015000", "151958.016000", "152000.016000", "152002.015000", "152004.015000", "152006.015000", "152008.015000", "152010.014000", "152012.015000", "152014.015000", "152016.015000", "152018.016000", "152020.015000", "152022.015000", "152024.015000", "152026.015000", "152028.015000", "152030.015000", "152032.015000", "152034.016000", "152036.015000", "152038.015000", "152040.015000", "152042.016000", "152044.015000", "152046.015000", "152048.015000", "152050.016000", "152052.016000", "152054.015000", "152056.015000", "152058.014000", "152100.015000", "152102.015000", "152104.015000", "152106.015000", "152108.016000", "152110.016000", "152112.016000", "152114.015000", "152116.015000", "152118.016000", "152120.015000", "152122.015000", "152124.015000", "152126.016000", "152128.015000", "152130.038000", "152132.015000", "152134.015000", "152136.015000", "152138.015000", "152140.016000", "152142.015000", "152144.016000", "152146.015000", "152148.015000", "152150.016000", "152152.015000", "152154.016000", "152156.016000", "152158.016000", "152200.016000", "152202.016000", "152204.016000", "152206.016000", "152208.016000", "152210.024000", "152212.016000", "152214.016000", "152216.015000", "152218.016000", "152220.016000", "152222.016000", "152224.015000", "152226.015000", "152228.015000", "152230.016000", "152232.016000", "152234.016000", "152236.017000", "152238.017000", "152240.016000", "152242.015000", "152244.016000", "152246.015000", "152248.016000", "152250.016000", "152252.016000", "152254.017000", "152256.016000", "152258.016000", "152300.016000", "152302.016000", "152304.016000", "152306.015000", "152308.016000", "152310.017000", "152312.017000", "152314.016000", "152316.016000", "152318.016000", "152320.016000", "152322.016000", "152324.015000", "152326.016000", "152328.017000", "152330.017000", "152332.016000", "152334.016000", "152336.016000", "152338.016000", "152340.016000", "152342.016000", "152344.016000", "152346.017000", "152348.017000", "152350.016000", "152352.016000", "152353.624000"],
      "InstanceNumber": [1, 2, 3, 4, 5, 6, 7, 8, 9, 10, 11, 12, 13, 14, 15, 16, 17, 18, 19, 20, 21, 22, 23, 24, 25, 26, 27, 28, 29, 30, 31, 32, 33, 34, 35, 36, 37, 38, 39, 40, 41, 42, 43, 44, 45, 46, 47, 48, 49, 50, 51, 52, 53, 54, 55, 56, 57, 58, 59, 60, 61, 62, 63, 64, 65, 66, 67, 68, 69, 70, 71, 72, 73, 74, 75, 76, 77, 78, 79, 80, 81, 82, 83, 84, 85, 86, 87, 88, 89, 90, 91, 92, 93, 94, 95, 96, 97, 98, 99, 100, 101, 102, 103, 104, 105, 106, 107, 108, 109, 110, 111, 112, 113, 114, 115, 116, 117, 118, 119, 120, 121, 122, 123, 124, 125, 126, 127, 128, 129, 130, 131, 132, 133, 134, 135, 136, 137, 138, 139, 140, 141, 142, 143, 144, 145, 146, 147, 148, 149, 150, 151, 152, 153, 154, 155, 156, 157, 158, 159, 160, 161, 162, 163, 164, 165, 166, 167, 168, 169, 170, 171, 172, 173, 174, 175, 176, 177, 178, 179, 180, 181, 182, 183, 184, 185, 186, 187, 188, 189, 190, 191, 192, 193, 194, 195, 196, 197, 198, 199, 200, 201, 202, 203, 204, 205, 206, 207, 208, 209, 210, 211, 212, 213, 214, 215, 216, 217, 218],
      "WindowCenter": [16711.0, 16677.0, 16655.0, 16636.0, 16626.0, 16639.0, 16625.0, 16638.0, 16634.0, 16643.0, 16635.0, 16630.0, 16612.0, 16625.0, 16632.0, 16620.0, 16636.0, 16613.0, 16629.0, 16636.0, 16607.0, 16611.0, 16640.0, 16608.0, 16633.0, 16641.0, 16623.0, 16613.0, 16623.0, 16612.0, 16628.0, 16630.0, 16627.0, 16628.0, 16611.0, 16620.0, 16628.0, 16627.0, 16640.0, 16620.0, 16623.0, 16639.0, 16632.0, 16620.0, 16625.0, 16616.0, 16618.0, 16634.0, 16627.0, 16630.0, 16614.0, 16609.0, 16628.0, 16633.0, 16628.0, 16631.0, 16615.0, 16623.0, 16639.0, 16625.0, 16631.0, 16617.0, 16637.0, 16623.0, 16647.0, 16634.0, 16622.0, 16625.0, 16633.0, 16639.0, 16628.0, 16625.0, 16632.0, 16627.0, 16639.0, 16633.0, 16603.0, 16638.0, 16641.0, 16650.0, 16660.0, 16649.0, 16616.0, 16634.0, 16629.0, 16651.0, 16664.0, 16636.0, 16645.0, 16637.0, 16659.0, 16666.0, 16651.0, 16640.0, 16646.0, 16655.0, 16654.0, 16640.0, 16640.0, 16642.0, 16650.0, 16648.0, 16656.0, 16670.0, 16664.0, 16642.0, 16646.0, 16642.0, 16642.0, 16641.0, 16651.0, 16653.0, 16638.0, 16637.0, 16642.0, 16635.0, 16657.0, 16641.0, 16631.0, 16640.0, 16641.0, 16644.0, 16664.0, 16642.0, 16642.0, 16643.0, 16641.0, 16630.0, 16635.0, 16624.0, 16631.0, 16628.0, 16638.0, 16650.0, 16644.0, 16633.0, 16633.0, 16634.0, 16642.0, 16628.0, 16633.0, 16632.0, 16639.0, 16628.0, 16658.0, 16646.0, 16645.0, 16634.0, 16644.0, 16643.0, 16656.0, 16631.0, 16636.0, 16639.0, 16654.0, 16641.0, 16639.0, 16646.0, 16655.0, 16646.0, 16646.0, 16649.0, 16631.0, 16627.0, 16633.0, 16643.0, 16644.0, 16652.0, 16650.0, 16654.0, 16645.0, 16649.0, 16662.0, 16667.0, 16677.0, 16649.0, 16642.0, 16655.0, 16665.0, 16657.0, 16654.0, 16669.0, 16653.0, 16657.0, 16659.0, 16655.0, 16653.0, 16663.0, 16644.0, 16652.0, 16631.0, 16649.0, 16640.0, 16658.0, 16650.0, 16652.0, 16653.0, 16660.0, 16652.0, 16658.0, 16644.0, 16675.0, 16655.0, 16648.0, 16653.0, 16655.0, 16649.0, 16667.0, 16671.0, 16639.0, 16647.0, 16654.0, 16673.0, 16651.0, 16632.0, 16652.0, 16660.0, 16666.0],
      "WindowWidth": [47715.0, 47506.0, 47435.0, 47408.0, 47374.0, 47319.0, 47347.0, 47344.0, 47392.0, 47375.0, 47316.0, 47260.0, 47247.0, 47283.0, 47302.0, 47319.0, 47240.0, 47209.0, 47220.0, 47277.0, 47323.0, 47328.0, 47296.0, 47350.0, 47367.0, 47373.0, 47374.0, 47340.0, 47322.0, 47340.0, 47324.0, 47287.0, 47258.0, 47273.0, 47312.0, 47319.0, 47299.0, 47338.0, 47360.0, 47347.0, 47361.0, 47332.0, 47326.0, 47280.0, 47244.0, 47303.0, 47357.0, 47316.0, 47310.0, 47287.0, 47276.0, 47311.0, 47312.0, 47316.0, 47314.0, 47264.0, 47304.0, 47376.0, 47386.0, 47363.0, 47302.0, 47346.0, 47385.0, 47427.0, 47392.0, 47343.0, 47347.0, 47403.0, 47368.0, 47295.0, 47287.0, 47378.0, 47421.0, 47390.0, 47322.0, 47279.0, 47387.0, 47464.0, 47507.0, 47448.0, 47311.0, 47160.0, 47123.0, 47188.0, 47277.0, 47305.0, 47327.0, 47334.0, 47328.0, 47360.0, 47362.0, 47380.0, 47383.0, 47426.0, 47444.0, 47385.0, 47319.0, 47309.0, 47335.0, 47376.0, 47395.0, 47432.0, 47489.0, 47435.0, 47405.0, 47389.0, 47405.0, 47415.0, 47376.0, 47348.0, 47381.0, 47383.0, 47346.0, 47308.0, 47297.0, 47344.0, 47294.0, 47296.0, 47316.0, 47362.0, 47400.0, 47443.0, 47419.0, 47405.0, 47378.0, 47363.0, 47349.0, 47341.0, 47345.0, 47388.0, 47382.0, 47378.0, 47360.0, 47330.0, 47300.0, 47318.0, 47370.0, 47384.0, 47365.0, 47380.0, 47383.0, 47343.0, 47336.0, 47419.0, 47452.0, 47443.0, 47391.0, 47371.0, 47338.0, 47298.0, 47307.0, 47317.0, 47268.0, 47283.0, 47318.0, 47311.0, 47375.0, 47457.0, 47427.0, 47421.0, 47485.0, 47487.0, 47435.0, 47405.0, 47408.0, 47325.0, 47286.0, 47293.0, 47344.0, 47347.0, 47288.0, 47342.0, 47404.0, 47408.0, 47363.0, 47290.0, 47310.0, 47359.0, 47353.0, 47361.0, 47359.0, 47370.0, 47450.0, 47479.0, 47454.0, 47386.0, 47344.0, 47326.0, 47353.0, 47372.0, 47382.0, 47395.0, 47428.0, 47402.0, 47396.0, 47424.0, 47386.0, 47338.0, 47384.0, 47467.0, 47471.0, 47377.0, 47374.0, 47409.0, 47361.0, 47426.0, 47513.0, 47474.0, 47398.0, 47364.0, 47407.0, 47399.0, 47349.0, 47359.0, 47423.0, 47529.0, 47548.0, 47515.0]
    },
    "slices": {}
  }
}