{
  "AcquisitionMatrixPE": 116,
  "AcquisitionNumber": 1,
  "AcquisitionTime": "10:47:15.832500",
  "BandwidthPerPixelPhaseEncode": 18.539,
  "BaseResolution": 116,
  "BodyPartExamined": "HEAD",
  "ConsistencyInfo": "N4_VD13D_LATEST_20130810",
  "ConversionSoftware": "dcm2niix",
  "ConversionSoftwareVersion": "v1.0.20190410  (JP2:OpenJPEG) (JP-LS:CharLS) GCC5.5.0",
  "DerivedVendorReportedEchoSpacing": 0.000930006,
  "DeviceSerialNumber": "66014",
  "DwellTime": 3e-06,
  "EchoTime": 0.03,
  "EchoTrainLength": 50,
  "EffectiveEchoSpacing": 0.000465003,
  "FlipAngle": 81,
  "ImageComments": "Unaliased_MB3_PE4",
  "ImageOrientationPatientDICOM": [0.999754, -0.0105224, 0.0195245, 0.0122149, 0.995984, -0.0886991],
  "ImageType": [
    "ORIGINAL",
    "PRIMARY",
    "M",
    "MB",
    "ND",
    "MOSAIC"
],
  "ImagingFrequency": 123.261,
  "InPlanePhaseEncodingDirectionDICOM": "COL",
  "InstitutionAddress": "Yiheyuan_Road_5_Beijing_Haidian_CN_100871",
  "InstitutionName": "Peking_University",
  "InstitutionalDepartmentName": "Department",
  "MRAcquisitionType": "2D",
  "MagneticFieldStrength": 3,
  "Manufacturer": "Siemens",
  "ManufacturersModelName": "Prisma",
  "Modality": "MR",
  "MultibandAccelerationFactor": 3,
  "ParallelReductionFactorInPlane": 2,
  "PartialFourier": 0.875,
  "PatientPosition": "HFS",
  "PercentPhaseFOV": 100,
  "PhaseEncodingDirection": "j-",
  "PhaseEncodingSteps": 101,
  "PhaseResolution": 1,
  "PixelBandwidth": 1435,
  "ProcedureStepDescription": "Research_Projects_64CH",
  "ProtocolName": "mbep2d_bold_MB3_test3",
  "PulseSequenceDetails": "%CustomerSeq%_cmrr_mbep2d_bold",
  "ReceiveCoilActiveElements": "HC1-6",
  "ReceiveCoilName": "HeadNeck_64",
  "ReconMatrixPE": 116,
  "RefLinesPE": 44,
  "RepetitionTime": 2,
  "SAR": 0.0646559,
  "ScanOptions": "PFP_FS",
  "ScanningSequence": "EP",
  "SequenceName": "epfid2d1_116",
  "SequenceVariant": "SK_SS",
  "SeriesDescription": "mbep2d_bold_MB3_test3",
  "SeriesNumber": 8,
  "ShimSetting": [-3462, -2097, -1953, 354, -46, -188, -49, 19],
  "SliceThickness": 1.9,
  "SliceTiming": [0, 0.9075, 1.815, 0.7425, 1.65, 0.5775, 1.485, 0.4125, 1.32, 0.2475, 1.155, 0.0825, 0.99, 1.8975, 0.825, 1.7325, 0.66, 1.5675, 0.495, 1.4025, 0.33, 1.2375, 0.165, 1.0725, 0, 0.9075, 1.815, 0.7425, 1.65, 0.5775, 1.485, 0.4125, 1.32, 0.2475, 1.155, 0.0825, 0.99, 1.8975, 0.825, 1.7325, 0.66, 1.5675, 0.495, 1.4025, 0.33, 1.2375, 0.165, 1.0725, 0, 0.9075, 1.815, 0.7425, 1.65, 0.5775, 1.485, 0.4125, 1.32, 0.2475, 1.155, 0.0825, 0.99, 1.8975, 0.825, 1.7325, 0.66, 1.5675, 0.495, 1.4025, 0.33, 1.2375, 0.165, 1.0725],
  "SoftwareVersions": "syngo_MR_D13D",
  "SpacingBetweenSlices": 1.9,
  "StationName": "AWP66014",
  "TaskName": "retrieval",
  "TotalReadoutTime": 0.0534753,
  "TxRefAmp": 229.226,
  "WipMemBlock": "f57889ff-e6b1-4ebb-8260-7486bf34a08a||Sequence: vd13d/master r/0735857; Nov 19 2014 09:21:40 by eja",
  "dcmmeta_affine": [
    [-1.8960851430892944, 0.023166190832853317, 0.03517421334981918, 107.2668228149414],
    [0.019956186413764954, 1.8889343738555908, -0.16894003748893738, -99.27106475830078],
    [0.0370291993021965, 0.16822250187397003, 1.8921475410461426, -73.43358612060547],
    [0.0, 0.0, 0.0, 1.0]
],
  "dcmmeta_reorient_transform": [
    [0.0, -1.0, 0.0, 115.0],
    [1.0, 0.0, 0.0, 0.0],
    [0.0, 0.0, 1.0, 0.0],
    [0.0, 0.0, 0.0, 1.0]
],
  "dcmmeta_shape": [116, 116, 72, 289],
  "dcmmeta_slice_dim": 2,
  "dcmmeta_version": 0.6,
  "global": {
    "const": {
      "AcquisitionMatrix": [116, 0, 0, 116],
      "AngioFlag": "N",
      "BitsAllocated": 16,
      "BitsStored": 16,
      "BodyPartExamined": "HEAD",
      "Columns": 1044,
      "EchoNumbers": 1,
      "EchoTime": 30.0,
      "EchoTrainLength": 50,
      "FlipAngle": 81.0,
      "HighBit": 15,
      "ImageOrientationPatient": [0.99975400699723, -0.0105223529108, 0.01952448673368, 0.01221490052296, 0.99598356344491, -0.0886991406542],
      "ImagePositionPatient": [-1000.4635766574, -985.16225506911, 6.7856991251946],
      "ImageType": [
        "ORIGINAL",
        "PRIMARY",
        "M",
        "MB",
        "ND",
        "MOSAIC"
],
      "ImagedNucleus": "1H",
      "ImagingFrequency": 123.26056,
      "InPlanePhaseEncodingDirection": "COL",
      "LargestImagePixelValue": 65535,
      "MRAcquisitionType": "2D",
      "MagneticFieldStrength": 3.0,
      "Manufacturer": "SIEMENS",
      "ManufacturerModelName": "Prisma",
      "Modality": "MR",
      "NumberOfAverages": 1.0,
      "NumberOfPhaseEncodingSteps": 101,
      "PercentPhaseFieldOfView": 100.0,
      "PercentSampling": 100.0,
      "PerformedProcedureStepStartTime": "101401.765000",
      "PhotometricInterpretation": "MONOCHROME2",
      "PixelBandwidth": 1435.0,
      "PixelRepresentation": 0,
      "PixelSpacing": [1.8965517282486, 1.8965517282486],
      "ProtocolName": "mbep2d_bold_MB3_test3",
      "RepetitionTime": 2000.0,
      "Rows": 1044,
      "SAR": 0.06465590025907,
      "SamplesPerPixel": 1,
      "ScanOptions": [
        "PFP",
        "FS"
],
      "ScanningSequence": "EP",
      "SequenceName": "epfid2d1_116",
      "SequenceVariant": [
        "SK",
        "SS"
],
      "SeriesDescription": "mbep2d_bold_MB3_test3",
      "SeriesNumber": 8,
      "SeriesTime": "104727.604000",
      "SliceLocation": -62.317520112058,
      "SliceThickness": 1.8999999761581,
      "SmallestImagePixelValue": 0,
      "SoftwareVersions": "syngo MR D13D",
      "SpacingBetweenSlices": 1.9000000277953,
      "SpecificCharacterSet": "ISO_IR 100",
      "StudyID": "1",
      "StudyTime": "101401.665000",
      "TimeOfLastCalibration": ["123723.000000", "123723.000000"],
      "TransmitCoilName": "Body",
      "VariableFlipAngleFlag": "N",
      "WindowCenterWidthExplanation": "Algo1",
      "dBdt": 0.0},
    "slices": {}
  },
  "time": {
    "samples": {
      "AcquisitionNumber": [1, 2, 3, 4, 5, 6, 7, 8, 9, 10, 11, 12, 13, 14, 15, 16, 17, 18, 19, 20, 21, 22, 23, 24, 25, 26, 27, 28, 29, 30, 31, 32, 33, 34, 35, 36, 37, 38, 39, 40, 41, 42, 43, 44, 45, 46, 47, 48, 49, 50, 51, 52, 53, 54, 55, 56, 57, 58, 59, 60, 61, 62, 63, 64, 65, 66, 67, 68, 69, 70, 71, 72, 73, 74, 75, 76, 77, 78, 79, 80, 81, 82, 83, 84, 85, 86, 87, 88, 89, 90, 91, 92, 93, 94, 95, 96, 97, 98, 99, 100, 101, 102, 103, 104, 105, 106, 107, 108, 109, 110, 111, 112, 113, 114, 115, 116, 117, 118, 119, 120, 121, 122, 123, 124, 125, 126, 127, 128, 129, 130, 131, 132, 133, 134, 135, 136, 137, 138, 139, 140, 141, 142, 143, 144, 145, 146, 147, 148, 149, 150, 151, 152, 153, 154, 155, 156, 157, 158, 159, 160, 161, 162, 163, 164, 165, 166, 167, 168, 169, 170, 171, 172, 173, 174, 175, 176, 177, 178, 179, 180, 181, 182, 183, 184, 185, 186, 187, 188, 189, 190, 191, 192, 193, 194, 195, 196, 197, 198, 199, 200, 201, 202, 203, 204, 205, 206, 207, 208, 209, 210, 211, 212, 213, 214, 215, 216, 217, 218, 219, 220, 221, 222, 223, 224, 225, 226, 227, 228, 229, 230, 231, 232, 233, 234, 235, 236, 237, 238, 239, 240, 241, 242, 243, 244, 245, 246, 247, 248, 249, 250, 251, 252, 253, 254, 255, 256, 257, 258, 259, 260, 261, 262, 263, 264, 265, 266, 267, 268, 269, 270, 271, 272, 273, 274, 275, 276, 277, 278, 279, 280, 281, 282, 283, 284, 285, 286, 287, 288, 289],
      "AcquisitionTime": ["104715.832500", "104717.832500", "104719.832500", "104721.832500", "104723.832500", "104725.832500", "104727.832500", "104729.832500", "104731.832500", "104733.832500", "104735.832500", "104737.832500", "104739.832500", "104741.832500", "104743.832500", "104745.832500", "104747.832500", "104749.832500", "104751.832500", "104753.832500", "104755.832500", "104757.832500", "104759.832500", "104801.832500", "104803.832500", "104805.832500", "104807.832500", "104809.832500", "104811.832500", "104813.832500", "104815.832500", "104817.832500", "104819.832500", "104821.832500", "104823.832500", "104825.832500", "104827.832500", "104829.832500", "104831.832500", "104833.832500", "104835.832500", "104837.832500", "104839.832500", "104841.832500", "104843.832500", "104845.832500", "104847.832500", "104849.832500", "104851.832500", "104853.832500", "104855.832500", "104857.832500", "104859.832500", "104901.832500", "104903.832500", "104905.832500", "104907.832500", "104909.832500", "104911.832500", "104913.832500", "104915.832500", "104917.832500", "104919.832500", "104921.832500", "104923.832500", "104925.832500", "104927.835000", "104929.835000", "104931.835000", "104933.835000", "104935.835000", "104937.835000", "104939.835000", "104941.835000", "104943.835000", "104945.835000", "104947.835000", "104949.835000", "104951.835000", "104953.835000", "104955.835000", "104957.835000", "104959.835000", "105001.835000", "105003.835000", "105005.835000", "105007.835000", "105009.835000", "105011.835000", "105013.835000", "105015.835000", "105017.835000", "105019.835000", "105021.835000", "105023.835000", "105025.835000", "105027.835000", "105029.835000", "105031.835000", "105033.835000", "105035.835000", "105037.835000", "105039.835000", "105041.835000", "105043.835000", "105045.835000", "105047.835000", "105049.835000", "105051.835000", "105053.835000", "105055.835000", "105057.835000", "105059.835000", "105101.835000", "105103.835000", "105105.835000", "105107.835000", "105109.835000", "105111.835000", "105113.835000", "105115.835000", "105117.835000", "105119.835000", "105121.835000", "105123.835000", "105125.835000", "105127.835000", "105129.835000", "105131.835000", "105133.835000", "105135.835000", "105137.835000", "105139.835000", "105141.835000", "105143.835000", "105145.835000", "105147.835000", "105149.835000", "105151.835000", "105153.835000", "105155.835000", "105157.835000", "105159.835000", "105201.835000", "105203.835000", "105205.835000", "105207.835000", "105209.835000", "105211.835000", "105213.835000", "105215.835000", "105217.835000", "105219.835000", "105221.835000", "105223.835000", "105225.835000", "105227.835000", "105229.835000", "105231.835000", "105233.835000", "105235.835000", "105237.835000", "105239.835000", "105241.835000", "105243.835000", "105245.835000", "105247.835000", "105249.835000", "105251.835000", "105253.835000", "105255.835000", "105257.835000", "105259.835000", "105301.835000", "105303.835000", "105305.835000", "105307.835000", "105309.835000", "105311.835000", "105313.835000", "105315.835000", "105317.835000", "105319.835000", "105321.835000", "105323.835000", "105325.835000", "105327.835000", "105329.835000", "105331.835000", "105333.835000", "105335.835000", "105337.835000", "105339.835000", "105341.835000", "105343.835000", "105345.835000", "105347.835000", "105349.835000", "105351.835000", "105353.835000", "105355.835000", "105357.835000", "105359.835000", "105401.835000", "105403.835000", "105405.835000", "105407.835000", "105409.835000", "105411.835000", "105413.835000", "105415.835000", "105417.835000", "105419.835000", "105421.835000", "105423.835000", "105425.835000", "105427.835000", "105429.835000", "105431.835000", "105433.835000", "105435.835000", "105437.835000", "105439.835000", "105441.835000", "105443.835000", "105445.835000", "105447.835000", "105449.835000", "105451.835000", "105453.835000", "105455.835000", "105457.835000", "105459.835000", "105501.835000", "105503.835000", "105505.835000", "105507.835000", "105509.835000", "105511.835000", "105513.835000", "105515.835000", "105517.835000", "105519.835000", "105521.835000", "105523.835000", "105525.835000", "105527.835000", "105529.835000", "105531.835000", "105533.835000", "105535.835000", "105537.835000", "105539.835000", "105541.835000", "105543.835000", "105545.835000", "105547.835000", "105549.835000", "105551.835000", "105553.835000", "105555.835000", "105557.835000", "105559.835000", "105601.835000", "105603.835000", "105605.835000", "105607.835000", "105609.835000", "105611.835000", "105613.835000", "105615.835000", "105617.835000", "105619.835000", "105621.835000", "105623.835000", "105625.835000", "105627.835000", "105629.835000", "105631.835000", "105633.835000", "105635.835000", "105637.835000", "105639.835000", "105641.835000", "105643.835000", "105645.835000", "105647.835000", "105649.835000", "105651.835000"],
      "ContentTime": ["104727.610000", "104728.602000", "104729.602000", "104729.606000", "104730.601000", "104730.605000", "104731.602000", "104733.100000", "104735.102000", "104737.104000", "104739.103000", "104741.102000", "104743.103000", "104745.103000", "104747.102000", "104749.102000", "104751.102000", "104753.102000", "104755.103000", "104757.103000", "104759.103000", "104801.103000", "104803.102000", "104805.102000", "104807.102000", "104809.102000", "104811.101000", "104813.103000", "104815.103000", "104817.103000", "104819.103000", "104821.103000", "104823.102000", "104825.102000", "104827.102000", "104829.103000", "104831.103000", "104833.103000", "104835.103000", "104837.103000", "104839.102000", "104841.102000", "104843.102000", "104845.102000", "104847.103000", "104849.103000", "104851.103000", "104853.103000", "104855.103000", "104857.102000", "104859.102000", "104901.102000", "104903.102000", "104905.104000", "104907.104000", "104909.104000", "104911.103000", "104913.103000", "104915.102000", "104917.102000", "104919.102000", "104921.102000", "104923.103000", "104925.102000", "104927.103000", "104929.103000", "104931.115000", "104933.102000", "104935.101000", "104937.102000", "104939.104000", "104941.103000", "104943.104000", "104945.103000", "104947.104000", "104949.102000", "104951.102000", "104953.102000", "104955.102000", "104957.102000", "104959.103000", "105001.103000", "105003.102000", "105005.103000", "105007.101000", "105009.103000", "105011.102000", "105013.102000", "105015.103000", "105017.104000", "105019.104000", "105021.103000", "105023.102000", "105025.102000", "105027.101000", "105029.101000", "105031.102000", "105033.104000", "105035.103000", "105037.103000", "105039.103000", "105041.103000", "105043.102000", "105045.103000", "105047.102000", "105049.103000", "105051.103000", "105053.103000", "105055.101000", "105057.101000", "105059.102000", "105101.101000", "105103.102000", "105105.101000", "105107.102000", "105109.102000", "105111.102000", "105113.102000", "105115.102000", "105117.101000", "105119.101000", "105121.101000", "105123.101000", "105125.102000", "105127.102000", "105129.102000", "105131.102000", "105133.102000", "105135.101000", "105137.101000", "105139.101000", "105141.101000", "105143.102000", "105145.102000", "105147.102000", "105149.102000", "105151.102000", "105153.101000", "105155.101000", "105157.101000", "105159.103000", "105201.103000", "105203.103000", "105205.103000", "105207.103000", "105209.102000", "105211.102000", "105213.102000", "105215.102000", "105217.103000", "105219.103000", "105221.104000", "105223.102000", "105225.103000", "105227.103000", "105229.102000", "105231.102000", "105233.102000", "105235.103000", "105237.102000", "105239.103000", "105241.103000", "105243.103000", "105245.102000", "105247.102000", "105249.101000", "105251.103000", "105253.103000", "105255.103000", "105257.103000", "105259.103000", "105301.102000", "105303.102000", "105305.102000", "105307.102000", "105309.103000", "105311.103000", "105313.102000", "105315.103000", "105317.103000", "105319.103000", "105321.102000", "105323.102000", "105325.102000", "105327.103000", "105329.103000", "105331.103000", "105333.104000", "105335.104000", "105337.102000", "105339.102000", "105341.103000", "105343.102000", "105345.103000", "105347.103000", "105349.104000", "105351.102000", "105353.103000", "105355.101000", "105357.102000", "105359.102000", "105401.103000", "105403.102000", "105405.103000", "105407.104000", "105409.103000", "105411.103000", "105413.102000", "105415.102000", "105417.101000", "105419.103000", "105421.104000", "105423.101000", "105425.103000", "105427.103000", "105429.102000", "105431.102000", "105433.102000", "105435.102000", "105437.103000", "105439.104000", "105441.103000", "105443.103000", "105445.103000", "105447.101000", "105449.103000", "105451.102000", "105453.102000", "105455.103000", "105457.103000", "105459.102000", "105501.103000", "105503.103000", "105505.102000", "105507.102000", "105509.102000", "105511.103000", "105513.103000", "105515.102000", "105517.103000", "105519.104000", "105521.102000", "105523.111000", "105525.102000", "105527.103000", "105529.103000", "105531.104000", "105533.103000", "105535.103000", "105537.103000", "105539.102000", "105541.102000", "105543.102000", "105545.102000", "105547.102000", "105549.101000", "105551.103000", "105553.103000", "105555.103000", "105557.100000", "105559.102000", "105601.102000", "105603.102000", "105605.104000", "105607.103000", "105609.103000", "105611.103000", "105613.103000", "105615.102000", "105617.102000", "105619.102000", "105621.103000", "105623.103000", "105625.103000", "105627.103000", "105629.103000", "105631.102000", "105633.102000", "105635.102000", "105637.102000", "105639.103000", "105641.101000", "105643.103000", "105645.103000", "105647.104000", "105649.102000", "105651.102000", "105653.102000", "105654.681000"],
      "InstanceCreationTime": ["104727.610000", "104728.602000", "104729.602000", "104729.606000", "104730.601000", "104730.605000", "104731.602000", "104733.100000", "104735.102000", "104737.104000", "104739.103000", "104741.102000", "104743.103000", "104745.103000", "104747.102000", "104749.102000", "104751.102000", "104753.102000", "104755.103000", "104757.103000", "104759.103000", "104801.103000", "104803.102000", "104805.102000", "104807.102000", "104809.102000", "104811.101000", "104813.103000", "104815.103000", "104817.103000", "104819.103000", "104821.103000", "104823.102000", "104825.102000", "104827.102000", "104829.103000", "104831.103000", "104833.103000", "104835.103000", "104837.103000", "104839.102000", "104841.102000", "104843.102000", "104845.102000", "104847.103000", "104849.103000", "104851.103000", "104853.103000", "104855.103000", "104857.102000", "104859.102000", "104901.102000", "104903.102000", "104905.104000", "104907.104000", "104909.104000", "104911.103000", "104913.103000", "104915.102000", "104917.102000", "104919.102000", "104921.102000", "104923.103000", "104925.102000", "104927.103000", "104929.103000", "104931.115000", "104933.102000", "104935.101000", "104937.102000", "104939.104000", "104941.103000", "104943.104000", "104945.103000", "104947.104000", "104949.102000", "104951.102000", "104953.102000", "104955.102000", "104957.102000", "104959.103000", "105001.103000", "105003.102000", "105005.103000", "105007.101000", "105009.103000", "105011.102000", "105013.102000", "105015.103000", "105017.104000", "105019.104000", "105021.103000", "105023.102000", "105025.102000", "105027.101000", "105029.101000", "105031.102000", "105033.104000", "105035.103000", "105037.103000", "105039.103000", "105041.103000", "105043.102000", "105045.103000", "105047.102000", "105049.103000", "105051.103000", "105053.103000", "105055.101000", "105057.101000", "105059.102000", "105101.101000", "105103.102000", "105105.101000", "105107.102000", "105109.102000", "105111.102000", "105113.102000", "105115.102000", "105117.101000", "105119.101000", "105121.101000", "105123.101000", "105125.102000", "105127.102000", "105129.102000", "105131.102000", "105133.102000", "105135.101000", "105137.101000", "105139.101000", "105141.101000", "105143.102000", "105145.102000", "105147.102000", "105149.102000", "105151.102000", "105153.101000", "105155.101000", "105157.101000", "105159.103000", "105201.103000", "105203.103000", "105205.103000", "105207.103000", "105209.102000", "105211.102000", "105213.102000", "105215.102000", "105217.103000", "105219.103000", "105221.104000", "105223.102000", "105225.103000", "105227.103000", "105229.102000", "105231.102000", "105233.102000", "105235.103000", "105237.102000", "105239.103000", "105241.103000", "105243.103000", "105245.102000", "105247.102000", "105249.101000", "105251.103000", "105253.103000", "105255.103000", "105257.103000", "105259.103000", "105301.102000", "105303.102000", "105305.102000", "105307.102000", "105309.103000", "105311.103000", "105313.102000", "105315.103000", "105317.103000", "105319.103000", "105321.102000", "105323.102000", "105325.102000", "105327.103000", "105329.103000", "105331.103000", "105333.104000", "105335.104000", "105337.102000", "105339.102000", "105341.103000", "105343.102000", "105345.103000", "105347.103000", "105349.104000", "105351.102000", "105353.103000", "105355.101000", "105357.102000", "105359.102000", "105401.103000", "105403.102000", "105405.103000", "105407.104000", "105409.103000", "105411.103000", "105413.102000", "105415.102000", "105417.101000", "105419.103000", "105421.104000", "105423.101000", "105425.103000", "105427.103000", "105429.102000", "105431.102000", "105433.102000", "105435.102000", "105437.103000", "105439.104000", "105441.103000", "105443.103000", "105445.103000", "105447.101000", "105449.103000", "105451.102000", "105453.102000", "105455.103000", "105457.103000", "105459.102000", "105501.103000", "105503.103000", "105505.102000", "105507.102000", "105509.102000", "105511.103000", "105513.103000", "105515.102000", "105517.103000", "105519.104000", "105521.102000", "105523.111000", "105525.102000", "105527.103000", "105529.103000", "105531.104000", "105533.103000", "105535.103000", "105537.103000", "105539.102000", "105541.102000", "105543.102000", "105545.102000", "105547.102000", "105549.101000", "105551.103000", "105553.103000", "105555.103000", "105557.100000", "105559.102000", "105601.102000", "105603.102000", "105605.104000", "105607.103000", "105609.103000", "105611.103000", "105613.103000", "105615.102000", "105617.102000", "105619.102000", "105621.103000", "105623.103000", "105625.103000", "105627.103000", "105629.103000", "105631.102000", "105633.102000", "105635.102000", "105637.102000", "105639.103000", "105641.101000", "105643.103000", "105645.103000", "105647.104000", "105649.102000", "105651.102000", "105653.102000", "105654.681000"],
      "InstanceNumber": [1, 2, 3, 4, 5, 6, 7, 8, 9, 10, 11, 12, 13, 14, 15, 16, 17, 18, 19, 20, 21, 22, 23, 24, 25, 26, 27, 28, 29, 30, 31, 32, 33, 34, 35, 36, 37, 38, 39, 40, 41, 42, 43, 44, 45, 46, 47, 48, 49, 50, 51, 52, 53, 54, 55, 56, 57, 58, 59, 60, 61, 62, 63, 64, 65, 66, 67, 68, 69, 70, 71, 72, 73, 74, 75, 76, 77, 78, 79, 80, 81, 82, 83, 84, 85, 86, 87, 88, 89, 90, 91, 92, 93, 94, 95, 96, 97, 98, 99, 100, 101, 102, 103, 104, 105, 106, 107, 108, 109, 110, 111, 112, 113, 114, 115, 116, 117, 118, 119, 120, 121, 122, 123, 124, 125, 126, 127, 128, 129, 130, 131, 132, 133, 134, 135, 136, 137, 138, 139, 140, 141, 142, 143, 144, 145, 146, 147, 148, 149, 150, 151, 152, 153, 154, 155, 156, 157, 158, 159, 160, 161, 162, 163, 164, 165, 166, 167, 168, 169, 170, 171, 172, 173, 174, 175, 176, 177, 178, 179, 180, 181, 182, 183, 184, 185, 186, 187, 188, 189, 190, 191, 192, 193, 194, 195, 196, 197, 198, 199, 200, 201, 202, 203, 204, 205, 206, 207, 208, 209, 210, 211, 212, 213, 214, 215, 216, 217, 218, 219, 220, 221, 222, 223, 224, 225, 226, 227, 228, 229, 230, 231, 232, 233, 234, 235, 236, 237, 238, 239, 240, 241, 242, 243, 244, 245, 246, 247, 248, 249, 250, 251, 252, 253, 254, 255, 256, 257, 258, 259, 260, 261, 262, 263, 264, 265, 266, 267, 268, 269, 270, 271, 272, 273, 274, 275, 276, 277, 278, 279, 280, 281, 282, 283, 284, 285, 286, 287, 288, 289],
      "WindowCenter": [18401.0, 18404.0, 18373.0, 18397.0, 18366.0, 18357.0, 18365.0, 18356.0, 18363.0, 18380.0, 18349.0, 18316.0, 18299.0, 18331.0, 18353.0, 18362.0, 18371.0, 18353.0, 18319.0, 18339.0, 18346.0, 18358.0, 18362.0, 18359.0, 18333.0, 18335.0, 18321.0, 18342.0, 18330.0, 18346.0, 18359.0, 18344.0, 18364.0, 18361.0, 18368.0, 18351.0, 18318.0, 18332.0, 18344.0, 18347.0, 18332.0, 18325.0, 18325.0, 18331.0, 18348.0, 18363.0, 18336.0, 18359.0, 18367.0, 18338.0, 18313.0, 18300.0, 18290.0, 18342.0, 18320.0, 18313.0, 18315.0, 18313.0, 18308.0, 18333.0, 18340.0, 18335.0, 18329.0, 18341.0, 18339.0, 18319.0, 18334.0, 18353.0, 18356.0, 18367.0, 18359.0, 18351.0, 18356.0, 18369.0, 18352.0, 18375.0, 18367.0, 18345.0, 18353.0, 18321.0, 18329.0, 18365.0, 18378.0, 18382.0, 18349.0, 18352.0, 18327.0, 18354.0, 18357.0, 18351.0, 18355.0, 18332.0, 18340.0, 18355.0, 18331.0, 18358.0, 18341.0, 18342.0, 18319.0, 18350.0, 18359.0, 18351.0, 18324.0, 18316.0, 18330.0, 18332.0, 18346.0, 18351.0, 18352.0, 18316.0, 18305.0, 18326.0, 18316.0, 18341.0, 18350.0, 18337.0, 18341.0, 18350.0, 18377.0, 18369.0, 18345.0, 18300.0, 18343.0, 18353.0, 18360.0, 18355.0, 18335.0, 18348.0, 18328.0, 18351.0, 18344.0, 18350.0, 18317.0, 18298.0, 18329.0, 18384.0, 18380.0, 18352.0, 18331.0, 18330.0, 18354.0, 18355.0, 18390.0, 18362.0, 18353.0, 18366.0, 18354.0, 18344.0, 18346.0, 18354.0, 18359.0, 18331.0, 18359.0, 18371.0, 18374.0, 18374.0, 18360.0, 18367.0, 18384.0, 18354.0, 18362.0, 18402.0, 18394.0, 18355.0, 18348.0, 18335.0, 18329.0, 18350.0, 18389.0, 18394.0, 18377.0, 18348.0, 18324.0, 18352.0, 18395.0, 18392.0, 18371.0, 18362.0, 18336.0, 18357.0, 18379.0, 18378.0, 18346.0, 18367.0, 18369.0, 18367.0, 18354.0, 18358.0, 18355.0, 18360.0, 18384.0, 18374.0, 18342.0, 18341.0, 18356.0, 18385.0, 18360.0, 18334.0, 18346.0, 18363.0, 18363.0, 18353.0, 18342.0, 18385.0, 18366.0, 18355.0, 18370.0, 18368.0, 18366.0, 18393.0, 18392.0, 18412.0, 18362.0, 18355.0, 18374.0, 18400.0, 18380.0, 18360.0, 18369.0, 18340.0, 18330.0, 18361.0, 18370.0, 18363.0, 18378.0, 18360.0, 18371.0, 18370.0, 18340.0, 18342.0, 18341.0, 18348.0, 18387.0, 18435.0, 18415.0, 18371.0, 18349.0, 18332.0, 18382.0, 18399.0, 18381.0, 18387.0, 18368.0, 18365.0, 18368.0, 18373.0, 18382.0, 18363.0, 18371.0, 18371.0, 18363.0, 18360.0, 18374.0, 18419.0, 18421.0, 18403.0, 18386.0, 18368.0, 18382.0, 18352.0, 18346.0, 18347.0, 18353.0, 18366.0, 18383.0, 18374.0, 18384.0, 18394.0, 18391.0, 18388.0, 18379.0, 18381.0, 18367.0, 18391.0, 18406.0, 18376.0, 18363.0, 18376.0, 18403.0, 18411.0, 18386.0, 18370.0, 18379.0, 18397.0, 18389.0, 18382.0, 18391.0, 18398.0, 18422.0],
      "WindowWidth": [50614.0, 50471.0, 50550.0, 50585.0, 50545.0, 50480.0, 50460.0, 50493.0, 50567.0, 50539.0, 50437.0, 50385.0, 50412.0, 50455.0, 50539.0, 50566.0, 50510.0, 50452.0, 50421.0, 50410.0, 50487.0, 50493.0, 50459.0, 50446.0, 50444.0, 50409.0, 50461.0, 50485.0, 50526.0, 50488.0, 50483.0, 50512.0, 50557.0, 50558.0, 50523.0, 50490.0, 50483.0, 50432.0, 50451.0, 50477.0, 50456.0, 50417.0, 50382.0, 50397.0, 50430.0, 50462.0, 50544.0, 50604.0, 50546.0, 50444.0, 50325.0, 50319.0, 50387.0, 50474.0, 50461.0, 50409.0, 50398.0, 50422.0, 50433.0, 50447.0, 50472.0, 50507.0, 50527.0, 50497.0, 50436.0, 50425.0, 50434.0, 50480.0, 50482.0, 50452.0, 50364.0, 50372.0, 50436.0, 50454.0, 50540.0, 50552.0, 50462.0, 50403.0, 50359.0, 50366.0, 50430.0, 50499.0, 50565.0, 50521.0, 50454.0, 50372.0, 50419.0, 50470.0, 50482.0, 50479.0, 50470.0, 50482.0, 50475.0, 50507.0, 50542.0, 50485.0, 50463.0, 50415.0, 50405.0, 50480.0, 50581.0, 50563.0, 50487.0, 50425.0, 50385.0, 50435.0, 50562.0, 50540.0, 50441.0, 50364.0, 50358.0, 50406.0, 50485.0, 50523.0, 50493.0, 50448.0, 50439.0, 50552.0, 50602.0, 50524.0, 50414.0, 50342.0, 50355.0, 50506.0, 50555.0, 50492.0, 50458.0, 50382.0, 50419.0, 50468.0, 50462.0, 50405.0, 50364.0, 50380.0, 50528.0, 50569.0, 50506.0, 50407.0, 50359.0, 50346.0, 50362.0, 50448.0, 50511.0, 50496.0, 50467.0, 50415.0, 50468.0, 50450.0, 50437.0, 50395.0, 50374.0, 50408.0, 50482.0, 50537.0, 50526.0, 50503.0, 50555.0, 50558.0, 50460.0, 50457.0, 50557.0, 50637.0, 50572.0, 50478.0, 50403.0, 50338.0, 50372.0, 50551.0, 50606.0, 50512.0, 50394.0, 50322.0, 50404.0, 50456.0, 50502.0, 50465.0, 50392.0, 50378.0, 50483.0, 50518.0, 50469.0, 50396.0, 50391.0, 50416.0, 50465.0, 50487.0, 50444.0, 50422.0, 50456.0, 50483.0, 50484.0, 50466.0, 50412.0, 50388.0, 50409.0, 50448.0, 50446.0, 50444.0, 50474.0, 50495.0, 50472.0, 50480.0, 50534.0, 50533.0, 50522.0, 50490.0, 50451.0, 50427.0, 50486.0, 50584.0, 50571.0, 50473.0, 50447.0, 50470.0, 50563.0, 50599.0, 50539.0, 50479.0, 50401.0, 50375.0, 50419.0, 50495.0, 50512.0, 50532.0, 50552.0, 50554.0, 50560.0, 50475.0, 50386.0, 50327.0, 50292.0, 50405.0, 50629.0, 50630.0, 50485.0, 50366.0, 50307.0, 50323.0, 50422.0, 50515.0, 50554.0, 50532.0, 50486.0, 50472.0, 50475.0, 50454.0, 50409.0, 50374.0, 50342.0, 50366.0, 50402.0, 50567.0, 50671.0, 50743.0, 50707.0, 50636.0, 50556.0, 50512.0, 50457.0, 50454.0, 50463.0, 50487.0, 50477.0, 50485.0, 50508.0, 50503.0, 50519.0, 50537.0, 50511.0, 50450.0, 50397.0, 50387.0, 50512.0, 50550.0, 50496.0, 50421.0, 50427.0, 50482.0, 50520.0, 50465.0, 50414.0, 50418.0, 50495.0, 50492.0, 50440.0, 50439.0, 50514.0, 50541.0, 50506.0]
    },
    "slices": {}
  }
}