{
  "AcquisitionMatrixPE": 116,
  "AcquisitionNumber": 1,
  "AcquisitionTime": "19:50:23.180000",
  "BandwidthPerPixelPhaseEncode": 18.539,
  "BaseResolution": 116,
  "BodyPartExamined": "HEAD",
  "ConsistencyInfo": "N4_VD13D_LATEST_20130810",
  "ConversionSoftware": "dcm2niix",
  "ConversionSoftwareVersion": "v1.0.20190410  (JP2:OpenJPEG) (JP-LS:CharLS) GCC5.5.0",
  "DerivedVendorReportedEchoSpacing": 0.000930006,
  "DeviceSerialNumber": "66014",
  "DwellTime": 3e-06,
  "EchoTime": 0.03,
  "EchoTrainLength": 50,
  "EffectiveEchoSpacing": 0.000465003,
  "FlipAngle": 81,
  "ImageComments": "Unaliased_MB3_PE4",
  "ImageOrientationPatientDICOM": [0.999021, -0.0210055, -0.0389221, 0.0156939, 0.991117, -0.132066],
  "ImageType": [
    "ORIGINAL",
    "PRIMARY",
    "M",
    "MB",
    "ND",
    "MOSAIC"
],
  "ImagingFrequency": 123.261,
  "InPlanePhaseEncodingDirectionDICOM": "COL",
  "InstitutionAddress": "Yiheyuan_Road_5_Beijing_Haidian_CN_100871",
  "InstitutionName": "Peking_University",
  "InstitutionalDepartmentName": "Department",
  "MRAcquisitionType": "2D",
  "MagneticFieldStrength": 3,
  "Manufacturer": "Siemens",
  "ManufacturersModelName": "Prisma",
  "Modality": "MR",
  "MultibandAccelerationFactor": 3,
  "ParallelReductionFactorInPlane": 2,
  "PartialFourier": 0.875,
  "PatientPosition": "HFS",
  "PercentPhaseFOV": 100,
  "PhaseEncodingDirection": "j-",
  "PhaseEncodingSteps": 101,
  "PhaseResolution": 1,
  "PixelBandwidth": 1435,
  "ProcedureStepDescription": "Research_Projects_64CH",
  "ProtocolName": "mbep2d_bold_MB3_learn6",
  "PulseSequenceDetails": "%CustomerSeq%_cmrr_mbep2d_bold",
  "ReceiveCoilActiveElements": "HC1-7",
  "ReceiveCoilName": "HeadNeck_64",
  "ReconMatrixPE": 116,
  "RefLinesPE": 44,
  "RepetitionTime": 2,
  "SAR": 0.0513064,
  "ScanOptions": "PFP_FS",
  "ScanningSequence": "EP",
  "SequenceName": "epfid2d1_116",
  "SequenceVariant": "SK_SS",
  "SeriesDescription": "mbep2d_bold_MB3_learn6",
  "SeriesNumber": 12,
  "ShimSetting": [-3456, -2140, -1950, 317, -62, -119, 94, 31],
  "SliceThickness": 1.9,
  "SliceTiming": [0, 0.9075, 1.815, 0.7425, 1.65, 0.5775, 1.485, 0.4125, 1.32, 0.2475, 1.155, 0.0825, 0.99, 1.8975, 0.825, 1.7325, 0.66, 1.5675, 0.495, 1.4025, 0.33, 1.2375, 0.165, 1.0725, 0, 0.9075, 1.815, 0.7425, 1.65, 0.5775, 1.485, 0.4125, 1.32, 0.2475, 1.155, 0.0825, 0.99, 1.8975, 0.825, 1.7325, 0.66, 1.5675, 0.495, 1.4025, 0.33, 1.2375, 0.165, 1.0725, 0, 0.9075, 1.815, 0.7425, 1.65, 0.5775, 1.485, 0.4125, 1.32, 0.2475, 1.155, 0.0825, 0.99, 1.8975, 0.825, 1.7325, 0.66, 1.5675, 0.495, 1.4025, 0.33, 1.2375, 0.165, 1.0725],
  "SoftwareVersions": "syngo_MR_D13D",
  "SpacingBetweenSlices": 1.9,
  "StationName": "AWP66014",
  "TaskName": "updating",
  "TotalReadoutTime": 0.0534753,
  "TxRefAmp": 220.065,
  "WipMemBlock": "ee041d4f-f20c-4223-8e3e-f0190707d4eb||Sequence: vd13d/master r/0735857; Nov 19 2014 09:21:40 by eja",
  "dcmmeta_affine": [
    [-1.8946958780288696, 0.02976435050368309, -0.07856585085391998, 110.48521423339844],
    [0.039837926626205444, 1.8797041177749634, -0.2495189905166626, -99.24951934814453],
    [-0.07381778210401535, 0.25046974420547485, 1.8819053173065186, -77.58528900146484],
    [0.0, 0.0, 0.0, 1.0]
],
  "dcmmeta_reorient_transform": [
    [0.0, -1.0, 0.0, 115.0],
    [1.0, 0.0, 0.0, 0.0],
    [0.0, 0.0, 1.0, 0.0],
    [0.0, 0.0, 0.0, 1.0]
],
  "dcmmeta_shape": [116, 116, 72, 218],
  "dcmmeta_slice_dim": 2,
  "dcmmeta_version": 0.6,
  "global": {
    "const": {
      "AcquisitionMatrix": [116, 0, 0, 116],
      "AngioFlag": "N",
      "BitsAllocated": 16,
      "BitsStored": 16,
      "BodyPartExamined": "HEAD",
      "Columns": 1044,
      "EchoNumbers": 1,
      "EchoTime": 30.0,
      "EchoTrainLength": 50,
      "FlipAngle": 81.0,
      "HighBit": 15,
      "ImageOrientationPatient": [0.9990214416891, -0.02100545166, -0.0389221022812, 0.01569393034264, 0.99111669785828, -0.132065861512],
      "ImagePositionPatient": [-1006.8576475308, -970.61434705296, 101.68814159002],
      "ImageType": [
        "ORIGINAL",
        "PRIMARY",
        "M",
        "MB",
        "ND",
        "MOSAIC"
],
      "ImagedNucleus": "1H",
      "ImagingFrequency": 123.260624,
      "InPlanePhaseEncodingDirection": "COL",
      "LargestImagePixelValue": 65535,
      "MRAcquisitionType": "2D",
      "MagneticFieldStrength": 3.0,
      "Manufacturer": "SIEMENS",
      "ManufacturerModelName": "Prisma",
      "Modality": "MR",
      "NumberOfAverages": 1.0,
      "NumberOfPhaseEncodingSteps": 101,
      "PercentPhaseFieldOfView": 100.0,
      "PercentSampling": 100.0,
      "PerformedProcedureStepStartTime": "184820.750000",
      "PhotometricInterpretation": "MONOCHROME2",
      "PixelBandwidth": 1435.0,
      "PixelRepresentation": 0,
      "PixelSpacing": [1.8965517282486, 1.8965517282486],
      "ProtocolName": "mbep2d_bold_MB3_learn6",
      "RepetitionTime": 2000.0,
      "Rows": 1044,
      "SAR": 0.05130639942978,
      "SamplesPerPixel": 1,
      "ScanOptions": [
        "PFP",
        "FS"
],
      "ScanningSequence": "EP",
      "SequenceName": "epfid2d1_116",
      "SequenceVariant": [
        "SK",
        "SS"
],
      "SeriesDescription": "mbep2d_bold_MB3_learn6",
      "SeriesNumber": 12,
      "SeriesTime": "195038.283000",
      "SliceLocation": -68.380994368833,
      "SliceThickness": 1.8999999761581,
      "SmallestImagePixelValue": 0,
      "SoftwareVersions": "syngo MR D13D",
      "SpacingBetweenSlices": 1.9000000215692,
      "SpecificCharacterSet": "ISO_IR 100",
      "StudyID": "1",
      "StudyTime": "184820.673000",
      "TimeOfLastCalibration": ["123723.000000", "123723.000000"],
      "TransmitCoilName": "Body",
      "VariableFlipAngleFlag": "N",
      "WindowCenterWidthExplanation": "Algo1",
      "dBdt": 0.0},
    "slices": {}
  },
  "time": {
    "samples": {
      "AcquisitionNumber": [1, 2, 3, 4, 5, 6, 7, 8, 9, 10, 11, 12, 13, 14, 15, 16, 17, 18, 19, 20, 21, 22, 23, 24, 25, 26, 27, 28, 29, 30, 31, 32, 33, 34, 35, 36, 37, 38, 39, 40, 41, 42, 43, 44, 45, 46, 47, 48, 49, 50, 51, 52, 53, 54, 55, 56, 57, 58, 59, 60, 61, 62, 63, 64, 65, 66, 67, 68, 69, 70, 71, 72, 73, 74, 75, 76, 77, 78, 79, 80, 81, 82, 83, 84, 85, 86, 87, 88, 89, 90, 91, 92, 93, 94, 95, 96, 97, 98, 99, 100, 101, 102, 103, 104, 105, 106, 107, 108, 109, 110, 111, 112, 113, 114, 115, 116, 117, 118, 119, 120, 121, 122, 123, 124, 125, 126, 127, 128, 129, 130, 131, 132, 133, 134, 135, 136, 137, 138, 139, 140, 141, 142, 143, 144, 145, 146, 147, 148, 149, 150, 151, 152, 153, 154, 155, 156, 157, 158, 159, 160, 161, 162, 163, 164, 165, 166, 167, 168, 169, 170, 171, 172, 173, 174, 175, 176, 177, 178, 179, 180, 181, 182, 183, 184, 185, 186, 187, 188, 189, 190, 191, 192, 193, 194, 195, 196, 197, 198, 199, 200, 201, 202, 203, 204, 205, 206, 207, 208, 209, 210, 211, 212, 213, 214, 215, 216, 217, 218],
      "AcquisitionTime": ["195023.180000", "195025.180000", "195027.180000", "195029.180000", "195031.180000", "195033.180000", "195035.180000", "195037.180000", "195039.180000", "195041.180000", "195043.180000", "195045.180000", "195047.180000", "195049.180000", "195051.180000", "195053.180000", "195055.180000", "195057.180000", "195059.180000", "195101.180000", "195103.180000", "195105.180000", "195107.180000", "195109.180000", "195111.180000", "195113.180000", "195115.180000", "195117.180000", "195119.180000", "195121.180000", "195123.180000", "195125.180000", "195127.180000", "195129.180000", "195131.180000", "195133.180000", "195135.180000", "195137.180000", "195139.180000", "195141.180000", "195143.180000", "195145.180000", "195147.180000", "195149.180000", "195151.180000", "195153.180000", "195155.180000", "195157.180000", "195159.180000", "195201.180000", "195203.180000", "195205.180000", "195207.180000", "195209.180000", "195211.180000", "195213.180000", "195215.180000", "195217.180000", "195219.180000", "195221.180000", "195223.180000", "195225.180000", "195227.180000", "195229.180000", "195231.180000", "195233.180000", "195235.180000", "195237.180000", "195239.180000", "195241.180000", "195243.180000", "195245.180000", "195247.180000", "195249.180000", "195251.180000", "195253.180000", "195255.180000", "195257.180000", "195259.180000", "195301.180000", "195303.180000", "195305.180000", "195307.180000", "195309.180000", "195311.180000", "195313.180000", "195315.180000", "195317.180000", "195319.180000", "195321.180000", "195323.180000", "195325.180000", "195327.180000", "195329.180000", "195331.180000", "195333.180000", "195335.180000", "195337.180000", "195339.180000", "195341.180000", "195343.180000", "195345.180000", "195347.180000", "195349.180000", "195351.180000", "195353.180000", "195355.180000", "195357.180000", "195359.180000", "195401.180000", "195403.180000", "195405.180000", "195407.180000", "195409.180000", "195411.180000", "195413.180000", "195415.180000", "195417.180000", "195419.180000", "195421.180000", "195423.180000", "195425.180000", "195427.180000", "195429.180000", "195431.180000", "195433.180000", "195435.180000", "195437.180000", "195439.180000", "195441.180000", "195443.180000", "195445.180000", "195447.180000", "195449.180000", "195451.180000", "195453.180000", "195455.180000", "195457.180000", "195459.180000", "195501.180000", "195503.180000", "195505.180000", "195507.180000", "195509.180000", "195511.180000", "195513.180000", "195515.180000", "195517.180000", "195519.180000", "195521.180000", "195523.180000", "195525.180000", "195527.180000", "195529.180000", "195531.180000", "195533.180000", "195535.180000", "195537.180000", "195539.180000", "195541.180000", "195543.180000", "195545.180000", "195547.180000", "195549.180000", "195551.180000", "195553.180000", "195555.180000", "195557.180000", "195559.180000", "195601.180000", "195603.180000", "195605.180000", "195607.180000", "195609.180000", "195611.180000", "195613.180000", "195615.180000", "195617.180000", "195619.180000", "195621.180000", "195623.180000", "195625.180000", "195627.180000", "195629.180000", "195631.180000", "195633.180000", "195635.182500", "195637.182500", "195639.182500", "195641.182500", "195643.182500", "195645.182500", "195647.182500", "195649.182500", "195651.182500", "195653.182500", "195655.182500", "195657.182500", "195659.182500", "195701.182500", "195703.182500", "195705.182500", "195707.182500", "195709.182500", "195711.182500", "195713.182500", "195715.182500", "195717.182500", "195719.182500", "195721.182500", "195723.182500", "195725.182500", "195727.182500", "195729.182500", "195731.182500", "195733.182500", "195735.182500", "195737.182500"],
      "ContentTime": ["195038.289000", "195039.281000", "195039.286000", "195040.280000", "195041.280000", "195041.284000", "195042.281000", "195043.282000", "195044.282000", "195045.281000", "195046.281000", "195047.782000", "195049.782000", "195051.782000", "195053.782000", "195055.783000", "195057.782000", "195059.782000", "195101.783000", "195103.782000", "195105.783000", "195107.782000", "195109.783000", "195111.782000", "195113.782000", "195115.781000", "195117.782000", "195119.781000", "195121.783000", "195123.782000", "195125.782000", "195127.782000", "195129.782000", "195131.782000", "195133.782000", "195135.782000", "195137.781000", "195139.782000", "195141.783000", "195143.783000", "195145.782000", "195147.782000", "195149.782000", "195151.783000", "195153.783000", "195155.783000", "195157.782000", "195159.783000", "195201.782000", "195203.782000", "195205.782000", "195207.782000", "195209.782000", "195211.782000", "195213.782000", "195215.782000", "195217.780000", "195219.782000", "195221.783000", "195223.782000", "195225.782000", "195227.783000", "195229.781000", "195231.782000", "195233.782000", "195235.782000", "195237.782000", "195239.783000", "195241.782000", "195243.782000", "195245.783000", "195247.781000", "195249.782000", "195251.782000", "195253.783000", "195255.783000", "195257.783000", "195259.782000", "195301.782000", "195303.782000", "195305.782000", "195307.782000", "195309.782000", "195311.782000", "195313.782000", "195315.782000", "195317.782000", "195319.782000", "195321.790000", "195323.782000", "195325.782000", "195327.782000", "195329.782000", "195331.782000", "195333.782000", "195335.782000", "195337.782000", "195339.781000", "195341.782000", "195343.782000", "195345.782000", "195347.783000", "195349.782000", "195351.782000", "195353.782000", "195355.782000", "195357.781000", "195359.782000", "195401.782000", "195403.782000", "195405.782000", "195407.782000", "195409.782000", "195411.782000", "195413.782000", "195415.782000", "195417.782000", "195419.782000", "195421.782000", "195423.782000", "195425.782000", "195427.782000", "195429.783000", "195431.782000", "195433.783000", "195435.782000", "195437.782000", "195439.782000", "195441.783000", "195443.782000", "195445.782000", "195447.782000", "195449.781000", "195451.782000", "195453.782000", "195455.782000", "195457.782000", "195459.782000", "195501.782000", "195503.782000", "195505.782000", "195507.781000", "195509.782000", "195511.782000", "195513.783000", "195515.782000", "195517.782000", "195519.782000", "195521.782000", "195523.782000", "195525.781000", "195527.782000", "195529.782000", "195531.782000", "195533.783000", "195535.782000", "195537.783000", "195539.782000", "195541.782000", "195543.782000", "195545.783000", "195547.782000", "195549.782000", "195551.782000", "195553.782000", "195555.782000", "195557.783000", "195559.782000", "195601.783000", "195603.782000", "195605.782000", "195607.782000", "195609.783000", "195611.783000", "195613.783000", "195615.782000", "195617.780000", "195619.782000", "195621.782000", "195623.782000", "195625.782000", "195627.782000", "195629.783000", "195631.782000", "195633.781000", "195635.783000", "195637.783000", "195639.782000", "195641.782000", "195643.781000", "195645.783000", "195647.782000", "195649.782000", "195651.782000", "195653.783000", "195655.782000", "195657.782000", "195659.782000", "195701.784000", "195703.782000", "195705.782000", "195707.782000", "195709.781000", "195711.785000", "195713.783000", "195715.782000", "195717.781000", "195719.782000", "195721.785000", "195723.782000", "195725.782000", "195727.781000", "195729.782000", "195731.782000", "195733.783000", "195735.781000", "195737.782000", "195739.316000"],
      "InstanceCreationTime": ["195038.289000", "195039.281000", "195039.286000", "195040.280000", "195041.280000", "195041.284000", "195042.281000", "195043.282000", "195044.282000", "195045.281000", "195046.281000", "195047.782000", "195049.782000", "195051.782000", "195053.782000", "195055.783000", "195057.782000", "195059.782000", "195101.783000", "195103.782000", "195105.783000", "195107.782000", "195109.783000", "195111.782000", "195113.782000", "195115.781000", "195117.782000", "195119.781000", "195121.783000", "195123.782000", "195125.782000", "195127.782000", "195129.782000", "195131.782000", "195133.782000", "195135.782000", "195137.781000", "195139.782000", "195141.783000", "195143.783000", "195145.782000", "195147.782000", "195149.782000", "195151.783000", "195153.783000", "195155.783000", "195157.782000", "195159.783000", "195201.782000", "195203.782000", "195205.782000", "195207.782000", "195209.782000", "195211.782000", "195213.782000", "195215.782000", "195217.780000", "195219.782000", "195221.783000", "195223.782000", "195225.782000", "195227.783000", "195229.781000", "195231.782000", "195233.782000", "195235.782000", "195237.782000", "195239.783000", "195241.782000", "195243.782000", "195245.783000", "195247.781000", "195249.782000", "195251.782000", "195253.783000", "195255.783000", "195257.783000", "195259.782000", "195301.782000", "195303.782000", "195305.782000", "195307.782000", "195309.782000", "195311.782000", "195313.782000", "195315.782000", "195317.782000", "195319.782000", "195321.790000", "195323.782000", "195325.782000", "195327.782000", "195329.782000", "195331.782000", "195333.782000", "195335.782000", "195337.782000", "195339.781000", "195341.782000", "195343.782000", "195345.782000", "195347.783000", "195349.782000", "195351.782000", "195353.782000", "195355.782000", "195357.781000", "195359.782000", "195401.782000", "195403.782000", "195405.782000", "195407.782000", "195409.782000", "195411.782000", "195413.782000", "195415.782000", "195417.782000", "195419.782000", "195421.782000", "195423.782000", "195425.782000", "195427.782000", "195429.783000", "195431.782000", "195433.783000", "195435.782000", "195437.782000", "195439.782000", "195441.783000", "195443.782000", "195445.782000", "195447.782000", "195449.781000", "195451.782000", "195453.782000", "195455.782000", "195457.782000", "195459.782000", "195501.782000", "195503.782000", "195505.782000", "195507.781000", "195509.782000", "195511.782000", "195513.783000", "195515.782000", "195517.782000", "195519.782000", "195521.782000", "195523.782000", "195525.781000", "195527.782000", "195529.782000", "195531.782000", "195533.783000", "195535.782000", "195537.783000", "195539.782000", "195541.782000", "195543.782000", "195545.783000", "195547.782000", "195549.782000", "195551.782000", "195553.782000", "195555.782000", "195557.783000", "195559.782000", "195601.783000", "195603.782000", "195605.782000", "195607.782000", "195609.783000", "195611.783000", "195613.783000", "195615.782000", "195617.780000", "195619.782000", "195621.782000", "195623.782000", "195625.782000", "195627.782000", "195629.783000", "195631.782000", "195633.781000", "195635.783000", "195637.783000", "195639.782000", "195641.782000", "195643.781000", "195645.783000", "195647.782000", "195649.782000", "195651.782000", "195653.783000", "195655.782000", "195657.782000", "195659.782000", "195701.784000", "195703.782000", "195705.782000", "195707.782000", "195709.781000", "195711.785000", "195713.783000", "195715.782000", "195717.781000", "195719.782000", "195721.785000", "195723.782000", "195725.782000", "195727.781000", "195729.782000", "195731.782000", "195733.783000", "195735.781000", "195737.782000", "195739.316000"],
      "InstanceNumber": [1, 2, 3, 4, 5, 6, 7, 8, 9, 10, 11, 12, 13, 14, 15, 16, 17, 18, 19, 20, 21, 22, 23, 24, 25, 26, 27, 28, 29, 30, 31, 32, 33, 34, 35, 36, 37, 38, 39, 40, 41, 42, 43, 44, 45, 46, 47, 48, 49, 50, 51, 52, 53, 54, 55, 56, 57, 58, 59, 60, 61, 62, 63, 64, 65, 66, 67, 68, 69, 70, 71, 72, 73, 74, 75, 76, 77, 78, 79, 80, 81, 82, 83, 84, 85, 86, 87, 88, 89, 90, 91, 92, 93, 94, 95, 96, 97, 98, 99, 100, 101, 102, 103, 104, 105, 106, 107, 108, 109, 110, 111, 112, 113, 114, 115, 116, 117, 118, 119, 120, 121, 122, 123, 124, 125, 126, 127, 128, 129, 130, 131, 132, 133, 134, 135, 136, 137, 138, 139, 140, 141, 142, 143, 144, 145, 146, 147, 148, 149, 150, 151, 152, 153, 154, 155, 156, 157, 158, 159, 160, 161, 162, 163, 164, 165, 166, 167, 168, 169, 170, 171, 172, 173, 174, 175, 176, 177, 178, 179, 180, 181, 182, 183, 184, 185, 186, 187, 188, 189, 190, 191, 192, 193, 194, 195, 196, 197, 198, 199, 200, 201, 202, 203, 204, 205, 206, 207, 208, 209, 210, 211, 212, 213, 214, 215, 216, 217, 218],
      "WindowCenter": [17031.0, 17023.0, 17012.0, 16998.0, 16996.0, 17007.0, 16992.0, 17001.0, 16996.0, 16978.0, 16977.0, 16988.0, 16994.0, 16978.0, 16979.0, 16985.0, 16972.0, 16972.0, 16992.0, 16989.0, 16985.0, 16992.0, 16979.0, 16990.0, 17004.0, 16987.0, 16987.0, 16975.0, 16985.0, 16977.0, 16961.0, 16951.0, 16966.0, 16982.0, 16960.0, 16964.0, 16964.0, 16971.0, 16968.0, 16967.0, 16972.0, 16984.0, 16983.0, 16979.0, 16994.0, 16982.0, 16991.0, 16985.0, 16988.0, 16998.0, 17020.0, 17020.0, 17001.0, 16994.0, 16983.0, 16984.0, 16997.0, 16978.0, 16983.0, 16976.0, 16970.0, 16964.0, 16962.0, 16953.0, 16981.0, 16997.0, 16997.0, 17000.0, 16988.0, 17003.0, 16994.0, 17012.0, 17004.0, 16990.0, 17000.0, 16993.0, 17006.0, 17011.0, 16996.0, 16998.0, 16993.0, 16991.0, 16977.0, 16978.0, 16980.0, 16999.0, 17006.0, 17007.0, 16989.0, 17001.0, 16995.0, 16999.0, 17012.0, 17007.0, 16997.0, 16997.0, 16991.0, 16992.0, 17019.0, 17004.0, 16996.0, 16998.0, 17002.0, 17003.0, 17001.0, 16982.0, 16993.0, 16995.0, 16998.0, 17000.0, 16993.0, 17004.0, 16993.0, 17008.0, 17002.0, 17002.0, 17009.0, 17010.0, 16997.0, 17000.0, 16996.0, 16995.0, 16997.0, 16991.0, 17000.0, 17017.0, 17015.0, 17024.0, 17018.0, 16997.0, 16997.0, 17013.0, 16991.0, 17017.0, 17019.0, 17015.0, 17010.0, 17017.0, 17003.0, 17007.0, 17014.0, 17012.0, 16992.0, 17001.0, 17011.0, 17011.0, 17023.0, 17025.0, 17016.0, 17018.0, 17026.0, 17017.0, 17000.0, 17010.0, 16990.0, 17012.0, 17010.0, 17011.0, 17000.0, 16996.0, 16994.0, 17007.0, 17013.0, 17002.0, 17009.0, 16987.0, 17005.0, 16991.0, 16998.0, 17014.0, 17008.0, 17029.0, 17015.0, 16998.0, 17026.0, 17025.0, 16987.0, 16993.0, 16983.0, 16999.0, 17004.0, 16988.0, 16988.0, 16999.0, 16992.0, 17004.0, 17019.0, 16985.0, 17006.0, 16998.0, 16989.0, 17006.0, 17019.0, 17006.0, 17013.0, 17007.0, 16998.0, 17004.0, 17013.0, 16996.0, 16994.0, 16996.0, 16995.0, 16980.0, 17002.0, 17002.0, 17007.0, 16999.0, 16993.0, 16992.0, 17004.0, 16985.0, 16993.0, 16998.0, 16985.0, 17001.0, 17024.0, 17007.0],
      "WindowWidth": [47686.0, 47604.0, 47490.0, 47377.0, 47391.0, 47488.0, 47479.0, 47383.0, 47391.0, 47394.0, 47406.0, 47440.0, 47404.0, 47392.0, 47367.0, 47320.0, 47312.0, 47363.0, 47429.0, 47399.0, 47333.0, 47275.0, 47279.0, 47341.0, 47439.0, 47476.0, 47409.0, 47296.0, 47230.0, 47238.0, 47214.0, 47220.0, 47203.0, 47191.0, 47151.0, 47178.0, 47256.0, 47352.0, 47362.0, 47361.0, 47362.0, 47370.0, 47359.0, 47369.0, 47405.0, 47435.0, 47377.0, 47360.0, 47364.0, 47462.0, 47489.0, 47449.0, 47359.0, 47354.0, 47346.0, 47375.0, 47357.0, 47329.0, 47320.0, 47326.0, 47285.0, 47280.0, 47253.0, 47311.0, 47422.0, 47443.0, 47378.0, 47302.0, 47359.0, 47433.0, 47453.0, 47401.0, 47357.0, 47361.0, 47356.0, 47402.0, 47461.0, 47374.0, 47261.0, 47265.0, 47326.0, 47286.0, 47274.0, 47312.0, 47314.0, 47291.0, 47311.0, 47323.0, 47373.0, 47355.0, 47326.0, 47356.0, 47378.0, 47387.0, 47328.0, 47289.0, 47299.0, 47327.0, 47334.0, 47349.0, 47291.0, 47267.0, 47259.0, 47273.0, 47295.0, 47282.0, 47264.0, 47292.0, 47294.0, 47308.0, 47291.0, 47321.0, 47303.0, 47287.0, 47346.0, 47359.0, 47377.0, 47340.0, 47367.0, 47307.0, 47280.0, 47343.0, 47357.0, 47351.0, 47333.0, 47370.0, 47395.0, 47428.0, 47421.0, 47393.0, 47369.0, 47392.0, 47455.0, 47422.0, 47370.0, 47367.0, 47339.0, 47319.0, 47321.0, 47315.0, 47331.0, 47317.0, 47327.0, 47309.0, 47342.0, 47316.0, 47287.0, 47327.0, 47347.0, 47359.0, 47326.0, 47332.0, 47296.0, 47314.0, 47313.0, 47391.0, 47352.0, 47265.0, 47232.0, 47254.0, 47264.0, 47288.0, 47330.0, 47282.0, 47221.0, 47221.0, 47272.0, 47364.0, 47383.0, 47368.0, 47364.0, 47317.0, 47345.0, 47422.0, 47453.0, 47374.0, 47357.0, 47298.0, 47267.0, 47279.0, 47360.0, 47347.0, 47283.0, 47239.0, 47262.0, 47335.0, 47309.0, 47322.0, 47337.0, 47319.0, 47337.0, 47337.0, 47410.0, 47388.0, 47292.0, 47274.0, 47293.0, 47283.0, 47263.0, 47226.0, 47251.0, 47290.0, 47278.0, 47292.0, 47306.0, 47318.0, 47246.0, 47191.0, 47226.0, 47303.0, 47285.0, 47282.0, 47262.0, 47292.0, 47307.0, 47357.0, 47374.0, 47337.0]
    },
    "slices": {}
  }
}