{
  "AcquisitionMatrixPE": 116,
  "AcquisitionNumber": 1,
  "AcquisitionTime": "19:05:34.522500",
  "BandwidthPerPixelPhaseEncode": 18.539,
  "BaseResolution": 116,
  "BodyPartExamined": "HEAD",
  "ConsistencyInfo": "N4_VD13D_LATEST_20130810",
  "ConversionSoftware": "dcm2niix",
  "ConversionSoftwareVersion": "v1.0.20190410  (JP2:OpenJPEG) (JP-LS:CharLS) GCC5.5.0",
  "DerivedVendorReportedEchoSpacing": 0.000930006,
  "DeviceSerialNumber": "66014",
  "DwellTime": 3e-06,
  "EchoTime": 0.03,
  "EchoTrainLength": 50,
  "EffectiveEchoSpacing": 0.000465003,
  "FlipAngle": 81,
  "ImageComments": "Unaliased_MB3_PE4",
  "ImageOrientationPatientDICOM": [0.999021, -0.0210055, -0.0389221, 0.0156939, 0.991117, -0.132066],
  "ImageType": [
    "ORIGINAL",
    "PRIMARY",
    "M",
    "MB",
    "ND",
    "MOSAIC"
],
  "ImagingFrequency": 123.261,
  "InPlanePhaseEncodingDirectionDICOM": "COL",
  "InstitutionAddress": "Yiheyuan_Road_5_Beijing_Haidian_CN_100871",
  "InstitutionName": "Peking_University",
  "InstitutionalDepartmentName": "Department",
  "MRAcquisitionType": "2D",
  "MagneticFieldStrength": 3,
  "Manufacturer": "Siemens",
  "ManufacturersModelName": "Prisma",
  "Modality": "MR",
  "MultibandAccelerationFactor": 3,
  "ParallelReductionFactorInPlane": 2,
  "PartialFourier": 0.875,
  "PatientPosition": "HFS",
  "PercentPhaseFOV": 100,
  "PhaseEncodingDirection": "j-",
  "PhaseEncodingSteps": 101,
  "PhaseResolution": 1,
  "PixelBandwidth": 1435,
  "ProcedureStepDescription": "Research_Projects_64CH",
  "ProtocolName": "mbep2d_bold_MB3_learn1",
  "PulseSequenceDetails": "%CustomerSeq%_cmrr_mbep2d_bold",
  "ReceiveCoilActiveElements": "HC1-7",
  "ReceiveCoilName": "HeadNeck_64",
  "ReconMatrixPE": 116,
  "RefLinesPE": 44,
  "RepetitionTime": 2,
  "SAR": 0.0513064,
  "ScanOptions": "PFP_FS",
  "ScanningSequence": "EP",
  "SequenceName": "epfid2d1_116",
  "SequenceVariant": "SK_SS",
  "SeriesDescription": "mbep2d_bold_MB3_learn1",
  "SeriesNumber": 6,
  "ShimSetting": [-3456, -2140, -1950, 317, -62, -119, 94, 31],
  "SliceThickness": 1.9,
  "SliceTiming": [0, 0.9075, 1.815, 0.7425, 1.65, 0.5775, 1.485, 0.4125, 1.32, 0.2475, 1.155, 0.0825, 0.99, 1.8975, 0.825, 1.7325, 0.66, 1.5675, 0.495, 1.4025, 0.33, 1.2375, 0.165, 1.0725, 0, 0.9075, 1.815, 0.7425, 1.65, 0.5775, 1.485, 0.4125, 1.32, 0.2475, 1.155, 0.0825, 0.99, 1.8975, 0.825, 1.7325, 0.66, 1.5675, 0.495, 1.4025, 0.33, 1.2375, 0.165, 1.0725, 0, 0.9075, 1.815, 0.7425, 1.65, 0.5775, 1.485, 0.4125, 1.32, 0.2475, 1.155, 0.0825, 0.99, 1.8975, 0.825, 1.7325, 0.66, 1.5675, 0.495, 1.4025, 0.33, 1.2375, 0.165, 1.0725],
  "SoftwareVersions": "syngo_MR_D13D",
  "SpacingBetweenSlices": 1.9,
  "StationName": "AWP66014",
  "TaskName": "updating",
  "TotalReadoutTime": 0.0534753,
  "TxRefAmp": 220.065,
  "WipMemBlock": "26c90cd8-b47e-40ef-90fd-619db8646c90||Sequence: vd13d/master r/0735857; Nov 19 2014 09:21:40 by eja",
  "dcmmeta_affine": [
    [-1.8946958780288696, 0.02976435050368309, -0.07856585085391998, 110.48521423339844],
    [0.039837926626205444, 1.8797041177749634, -0.2495189905166626, -99.24951934814453],
    [-0.07381778210401535, 0.25046974420547485, 1.8819053173065186, -77.58528900146484],
    [0.0, 0.0, 0.0, 1.0]
],
  "dcmmeta_reorient_transform": [
    [0.0, -1.0, 0.0, 115.0],
    [1.0, 0.0, 0.0, 0.0],
    [0.0, 0.0, 1.0, 0.0],
    [0.0, 0.0, 0.0, 1.0]
],
  "dcmmeta_shape": [116, 116, 72, 218],
  "dcmmeta_slice_dim": 2,
  "dcmmeta_version": 0.6,
  "global": {
    "const": {
      "AcquisitionMatrix": [116, 0, 0, 116],
      "AngioFlag": "N",
      "BitsAllocated": 16,
      "BitsStored": 16,
      "BodyPartExamined": "HEAD",
      "Columns": 1044,
      "EchoNumbers": 1,
      "EchoTime": 30.0,
      "EchoTrainLength": 50,
      "FlipAngle": 81.0,
      "HighBit": 15,
      "ImageOrientationPatient": [0.9990214416891, -0.02100545166, -0.0389221022812, 0.01569393034264, 0.99111669785828, -0.132065861512],
      "ImagePositionPatient": [-1006.8576475308, -970.61434705296, 101.68814159002],
      "ImageType": [
        "ORIGINAL",
        "PRIMARY",
        "M",
        "MB",
        "ND",
        "MOSAIC"
],
      "ImagedNucleus": "1H",
      "ImagingFrequency": 123.260622,
      "InPlanePhaseEncodingDirection": "COL",
      "LargestImagePixelValue": 65535,
      "MRAcquisitionType": "2D",
      "MagneticFieldStrength": 3.0,
      "Manufacturer": "SIEMENS",
      "ManufacturerModelName": "Prisma",
      "Modality": "MR",
      "NumberOfAverages": 1.0,
      "NumberOfPhaseEncodingSteps": 101,
      "PercentPhaseFieldOfView": 100.0,
      "PercentSampling": 100.0,
      "PerformedProcedureStepStartTime": "184820.750000",
      "PhotometricInterpretation": "MONOCHROME2",
      "PixelBandwidth": 1435.0,
      "PixelRepresentation": 0,
      "PixelSpacing": [1.8965517282486, 1.8965517282486],
      "ProtocolName": "mbep2d_bold_MB3_learn1",
      "RepetitionTime": 2000.0,
      "Rows": 1044,
      "SAR": 0.05130639944464,
      "SamplesPerPixel": 1,
      "ScanOptions": [
        "PFP",
        "FS"
],
      "ScanningSequence": "EP",
      "SequenceName": "epfid2d1_116",
      "SequenceVariant": [
        "SK",
        "SS"
],
      "SeriesDescription": "mbep2d_bold_MB3_learn1",
      "SeriesNumber": 6,
      "SeriesTime": "190550.490000",
      "SliceLocation": -68.380994368833,
      "SliceThickness": 1.8999999761581,
      "SmallestImagePixelValue": 0,
      "SoftwareVersions": "syngo MR D13D",
      "SpacingBetweenSlices": 1.9000000215692,
      "SpecificCharacterSet": "ISO_IR 100",
      "StudyID": "1",
      "StudyTime": "184820.673000",
      "TimeOfLastCalibration": ["123723.000000", "123723.000000"],
      "TransmitCoilName": "Body",
      "VariableFlipAngleFlag": "N",
      "WindowCenterWidthExplanation": "Algo1",
      "dBdt": 0.0},
    "slices": {}
  },
  "time": {
    "samples": {
      "AcquisitionNumber": [1, 2, 3, 4, 5, 6, 7, 8, 9, 10, 11, 12, 13, 14, 15, 16, 17, 18, 19, 20, 21, 22, 23, 24, 25, 26, 27, 28, 29, 30, 31, 32, 33, 34, 35, 36, 37, 38, 39, 40, 41, 42, 43, 44, 45, 46, 47, 48, 49, 50, 51, 52, 53, 54, 55, 56, 57, 58, 59, 60, 61, 62, 63, 64, 65, 66, 67, 68, 69, 70, 71, 72, 73, 74, 75, 76, 77, 78, 79, 80, 81, 82, 83, 84, 85, 86, 87, 88, 89, 90, 91, 92, 93, 94, 95, 96, 97, 98, 99, 100, 101, 102, 103, 104, 105, 106, 107, 108, 109, 110, 111, 112, 113, 114, 115, 116, 117, 118, 119, 120, 121, 122, 123, 124, 125, 126, 127, 128, 129, 130, 131, 132, 133, 134, 135, 136, 137, 138, 139, 140, 141, 142, 143, 144, 145, 146, 147, 148, 149, 150, 151, 152, 153, 154, 155, 156, 157, 158, 159, 160, 161, 162, 163, 164, 165, 166, 167, 168, 169, 170, 171, 172, 173, 174, 175, 176, 177, 178, 179, 180, 181, 182, 183, 184, 185, 186, 187, 188, 189, 190, 191, 192, 193, 194, 195, 196, 197, 198, 199, 200, 201, 202, 203, 204, 205, 206, 207, 208, 209, 210, 211, 212, 213, 214, 215, 216, 217, 218],
      "AcquisitionTime": ["190534.522500", "190536.522500", "190538.522500", "190540.522500", "190542.522500", "190544.522500", "190546.522500", "190548.522500", "190550.522500", "190552.522500", "190554.522500", "190556.522500", "190558.522500", "190600.522500", "190602.522500", "190604.522500", "190606.522500", "190608.522500", "190610.522500", "190612.522500", "190614.522500", "190616.522500", "190618.522500", "190620.522500", "190622.522500", "190624.522500", "190626.522500", "190628.522500", "190630.522500", "190632.522500", "190634.522500", "190636.522500", "190638.522500", "190640.522500", "190642.522500", "190644.522500", "190646.522500", "190648.522500", "190650.522500", "190652.522500", "190654.522500", "190656.522500", "190658.522500", "190700.522500", "190702.522500", "190704.522500", "190706.522500", "190708.522500", "190710.522500", "190712.522500", "190714.522500", "190716.522500", "190718.522500", "190720.522500", "190722.522500", "190724.522500", "190726.522500", "190728.522500", "190730.522500", "190732.522500", "190734.522500", "190736.522500", "190738.522500", "190740.522500", "190742.522500", "190744.522500", "190746.522500", "190748.522500", "190750.522500", "190752.522500", "190754.522500", "190756.522500", "190758.522500", "190800.522500", "190802.522500", "190804.522500", "190806.522500", "190808.522500", "190810.522500", "190812.522500", "190814.522500", "190816.522500", "190818.522500", "190820.522500", "190822.522500", "190824.522500", "190826.522500", "190828.522500", "190830.522500", "190832.522500", "190834.522500", "190836.522500", "190838.522500", "190840.522500", "190842.522500", "190844.522500", "190846.522500", "190848.522500", "190850.522500", "190852.522500", "190854.522500", "190856.522500", "190858.522500", "190900.522500", "190902.522500", "190904.522500", "190906.522500", "190908.522500", "190910.522500", "190912.522500", "190914.522500", "190916.522500", "190918.522500", "190920.522500", "190922.522500", "190924.522500", "190926.522500", "190928.522500", "190930.522500", "190932.522500", "190934.522500", "190936.522500", "190938.522500", "190940.522500", "190942.522500", "190944.522500", "190946.522500", "190948.522500", "190950.522500", "190952.522500", "190954.522500", "190956.522500", "190958.522500", "191000.522500", "191002.522500", "191004.522500", "191006.522500", "191008.522500", "191010.522500", "191012.522500", "191014.522500", "191016.522500", "191018.522500", "191020.522500", "191022.522500", "191024.522500", "191026.522500", "191028.522500", "191030.522500", "191032.522500", "191034.522500", "191036.522500", "191038.522500", "191040.522500", "191042.522500", "191044.522500", "191046.522500", "191048.522500", "191050.522500", "191052.522500", "191054.522500", "191056.522500", "191058.522500", "191100.522500", "191102.522500", "191104.522500", "191106.522500", "191108.522500", "191110.522500", "191112.522500", "191114.522500", "191116.522500", "191118.522500", "191120.522500", "191122.522500", "191124.522500", "191126.522500", "191128.522500", "191130.522500", "191132.522500", "191134.522500", "191136.522500", "191138.522500", "191140.522500", "191142.522500", "191144.522500", "191146.522500", "191148.525000", "191150.525000", "191152.525000", "191154.525000", "191156.525000", "191158.525000", "191200.525000", "191202.525000", "191204.525000", "191206.525000", "191208.525000", "191210.525000", "191212.525000", "191214.525000", "191216.525000", "191218.525000", "191220.525000", "191222.525000", "191224.525000", "191226.525000", "191228.525000", "191230.525000", "191232.525000", "191234.525000", "191236.525000", "191238.525000", "191240.525000", "191242.525000", "191244.525000", "191246.525000", "191248.525000"],
      "ContentTime": ["190550.496000", "190551.488000", "190551.493000", "190552.489000", "190553.489000", "190553.494000", "190554.490000", "190555.489000", "190556.489000", "190557.489000", "190557.493000", "190559.489000", "190601.493000", "190603.490000", "190605.489000", "190607.490000", "190609.490000", "190611.490000", "190613.489000", "190615.489000", "190617.491000", "190619.490000", "190621.490000", "190623.489000", "190625.489000", "190627.489000", "190629.491000", "190631.490000", "190633.490000", "190635.490000", "190637.490000", "190639.490000", "190641.489000", "190643.488000", "190645.488000", "190647.490000", "190649.490000", "190651.490000", "190653.490000", "190655.490000", "190657.489000", "190659.489000", "190701.489000", "190703.490000", "190705.490000", "190707.490000", "190709.490000", "190711.490000", "190713.491000", "190715.490000", "190717.489000", "190719.490000", "190721.490000", "190723.490000", "190725.490000", "190727.489000", "190729.490000", "190731.490000", "190733.489000", "190735.489000", "190737.489000", "190739.490000", "190741.490000", "190743.490000", "190745.490000", "190747.491000", "190749.491000", "190751.490000", "190753.488000", "190755.489000", "190757.489000", "190759.490000", "190801.490000", "190803.490000", "190805.490000", "190807.488000", "190809.490000", "190811.489000", "190813.490000", "190815.490000", "190817.490000", "190819.490000", "190821.490000", "190823.490000", "190825.489000", "190827.489000", "190829.487000", "190831.490000", "190833.490000", "190835.490000", "190837.490000", "190839.490000", "190841.490000", "190843.489000", "190845.489000", "190847.490000", "190849.490000", "190851.490000", "190853.490000", "190855.490000", "190857.490000", "190859.490000", "190901.489000", "190903.490000", "190905.489000", "190907.491000", "190909.490000", "190911.490000", "190913.490000", "190915.490000", "190917.489000", "190919.489000", "190921.489000", "190923.490000", "190925.490000", "190927.490000", "190929.491000", "190931.490000", "190933.490000", "190935.489000", "190937.488000", "190939.489000", "190941.490000", "190943.491000", "190945.490000", "190947.490000", "190949.490000", "190951.489000", "190953.489000", "190955.490000", "190957.489000", "190959.490000", "191001.490000", "191003.488000", "191005.490000", "191007.488000", "191009.490000", "191011.489000", "191013.489000", "191015.490000", "191017.490000", "191019.490000", "191021.490000", "191023.490000", "191025.490000", "191027.489000", "191029.489000", "191031.488000", "191033.488000", "191035.490000", "191037.489000", "191039.489000", "191041.490000", "191043.491000", "191045.488000", "191047.489000", "191049.488000", "191051.489000", "191053.489000", "191055.489000", "191057.489000", "191059.489000", "191101.490000", "191103.488000", "191105.488000", "191107.489000", "191109.490000", "191111.490000", "191113.491000", "191115.491000", "191117.489000", "191119.489000", "191121.489000", "191123.489000", "191125.490000", "191127.490000", "191129.490000", "191131.489000", "191133.490000", "191135.490000", "191137.488000", "191139.489000", "191141.489000", "191143.490000", "191145.489000", "191147.491000", "191149.489000", "191151.501000", "191153.491000", "191155.489000", "191157.489000", "191159.489000", "191201.490000", "191203.488000", "191205.490000", "191207.491000", "191209.490000", "191211.490000", "191213.489000", "191215.489000", "191217.489000", "191219.490000", "191221.489000", "191223.490000", "191225.490000", "191227.490000", "191229.491000", "191231.489000", "191233.489000", "191235.491000", "191237.490000", "191239.490000", "191241.490000", "191243.490000", "191245.490000", "191247.489000", "191249.489000", "191251.359000"],
      "InstanceCreationTime": ["190550.496000", "190551.488000", "190551.493000", "190552.489000", "190553.489000", "190553.494000", "190554.490000", "190555.489000", "190556.489000", "190557.489000", "190557.493000", "190559.489000", "190601.493000", "190603.490000", "190605.489000", "190607.490000", "190609.490000", "190611.490000", "190613.489000", "190615.489000", "190617.491000", "190619.490000", "190621.490000", "190623.489000", "190625.489000", "190627.489000", "190629.491000", "190631.490000", "190633.490000", "190635.490000", "190637.490000", "190639.490000", "190641.489000", "190643.488000", "190645.488000", "190647.490000", "190649.490000", "190651.490000", "190653.490000", "190655.490000", "190657.489000", "190659.489000", "190701.489000", "190703.490000", "190705.490000", "190707.490000", "190709.490000", "190711.490000", "190713.491000", "190715.490000", "190717.489000", "190719.490000", "190721.490000", "190723.490000", "190725.490000", "190727.489000", "190729.490000", "190731.490000", "190733.489000", "190735.489000", "190737.489000", "190739.490000", "190741.490000", "190743.490000", "190745.490000", "190747.491000", "190749.491000", "190751.490000", "190753.488000", "190755.489000", "190757.489000", "190759.490000", "190801.490000", "190803.490000", "190805.490000", "190807.488000", "190809.490000", "190811.489000", "190813.490000", "190815.490000", "190817.490000", "190819.490000", "190821.490000", "190823.490000", "190825.489000", "190827.489000", "190829.487000", "190831.490000", "190833.490000", "190835.490000", "190837.490000", "190839.490000", "190841.490000", "190843.489000", "190845.489000", "190847.490000", "190849.490000", "190851.490000", "190853.490000", "190855.490000", "190857.490000", "190859.490000", "190901.489000", "190903.490000", "190905.489000", "190907.491000", "190909.490000", "190911.490000", "190913.490000", "190915.490000", "190917.489000", "190919.489000", "190921.489000", "190923.490000", "190925.490000", "190927.490000", "190929.491000", "190931.490000", "190933.490000", "190935.489000", "190937.488000", "190939.489000", "190941.490000", "190943.491000", "190945.490000", "190947.490000", "190949.490000", "190951.489000", "190953.489000", "190955.490000", "190957.489000", "190959.490000", "191001.490000", "191003.488000", "191005.490000", "191007.488000", "191009.490000", "191011.489000", "191013.489000", "191015.490000", "191017.490000", "191019.490000", "191021.490000", "191023.490000", "191025.490000", "191027.489000", "191029.489000", "191031.488000", "191033.488000", "191035.490000", "191037.489000", "191039.489000", "191041.490000", "191043.491000", "191045.488000", "191047.489000", "191049.488000", "191051.489000", "191053.489000", "191055.489000", "191057.489000", "191059.489000", "191101.490000", "191103.488000", "191105.488000", "191107.489000", "191109.490000", "191111.490000", "191113.491000", "191115.491000", "191117.489000", "191119.489000", "191121.489000", "191123.489000", "191125.490000", "191127.490000", "191129.490000", "191131.489000", "191133.490000", "191135.490000", "191137.488000", "191139.489000", "191141.489000", "191143.490000", "191145.489000", "191147.491000", "191149.489000", "191151.501000", "191153.491000", "191155.489000", "191157.489000", "191159.489000", "191201.490000", "191203.488000", "191205.490000", "191207.491000", "191209.490000", "191211.490000", "191213.489000", "191215.489000", "191217.489000", "191219.490000", "191221.489000", "191223.490000", "191225.490000", "191227.490000", "191229.491000", "191231.489000", "191233.489000", "191235.491000", "191237.490000", "191239.490000", "191241.490000", "191243.490000", "191245.490000", "191247.489000", "191249.489000", "191251.359000"],
      "InstanceNumber": [1, 2, 3, 4, 5, 6, 7, 8, 9, 10, 11, 12, 13, 14, 15, 16, 17, 18, 19, 20, 21, 22, 23, 24, 25, 26, 27, 28, 29, 30, 31, 32, 33, 34, 35, 36, 37, 38, 39, 40, 41, 42, 43, 44, 45, 46, 47, 48, 49, 50, 51, 52, 53, 54, 55, 56, 57, 58, 59, 60, 61, 62, 63, 64, 65, 66, 67, 68, 69, 70, 71, 72, 73, 74, 75, 76, 77, 78, 79, 80, 81, 82, 83, 84, 85, 86, 87, 88, 89, 90, 91, 92, 93, 94, 95, 96, 97, 98, 99, 100, 101, 102, 103, 104, 105, 106, 107, 108, 109, 110, 111, 112, 113, 114, 115, 116, 117, 118, 119, 120, 121, 122, 123, 124, 125, 126, 127, 128, 129, 130, 131, 132, 133, 134, 135, 136, 137, 138, 139, 140, 141, 142, 143, 144, 145, 146, 147, 148, 149, 150, 151, 152, 153, 154, 155, 156, 157, 158, 159, 160, 161, 162, 163, 164, 165, 166, 167, 168, 169, 170, 171, 172, 173, 174, 175, 176, 177, 178, 179, 180, 181, 182, 183, 184, 185, 186, 187, 188, 189, 190, 191, 192, 193, 194, 195, 196, 197, 198, 199, 200, 201, 202, 203, 204, 205, 206, 207, 208, 209, 210, 211, 212, 213, 214, 215, 216, 217, 218],
      "WindowCenter": [17471.0, 17444.0, 17423.0, 17419.0, 17408.0, 17432.0, 17443.0, 17452.0, 17461.0, 17484.0, 17480.0, 17513.0, 17523.0, 17507.0, 17499.0, 17494.0, 17496.0, 17510.0, 17516.0, 17528.0, 17516.0, 17527.0, 17519.0, 17499.0, 17496.0, 17510.0, 17510.0, 17497.0, 17517.0, 17525.0, 17527.0, 17496.0, 17448.0, 17465.0, 17458.0, 17458.0, 17480.0, 17469.0, 17469.0, 17453.0, 17477.0, 17471.0, 17452.0, 17460.0, 17468.0, 17491.0, 17490.0, 17493.0, 17492.0, 17483.0, 17473.0, 17485.0, 17484.0, 17505.0, 17513.0, 17495.0, 17490.0, 17493.0, 17496.0, 17491.0, 17493.0, 17490.0, 17515.0, 17514.0, 17507.0, 17493.0, 17497.0, 17504.0, 17519.0, 17489.0, 17477.0, 17458.0, 17466.0, 17472.0, 17491.0, 17499.0, 17486.0, 17494.0, 17489.0, 17467.0, 17471.0, 17477.0, 17474.0, 17490.0, 17500.0, 17504.0, 17476.0, 17466.0, 17480.0, 17461.0, 17459.0, 17467.0, 17470.0, 17482.0, 17477.0, 17496.0, 17507.0, 17486.0, 17476.0, 17449.0, 17465.0, 17459.0, 17468.0, 17488.0, 17484.0, 17473.0, 17463.0, 17470.0, 17467.0, 17494.0, 17498.0, 17476.0, 17467.0, 17484.0, 17475.0, 17474.0, 17470.0, 17469.0, 17469.0, 17473.0, 17462.0, 17494.0, 17496.0, 17464.0, 17486.0, 17483.0, 17483.0, 17491.0, 17477.0, 17480.0, 17492.0, 17488.0, 17499.0, 17511.0, 17505.0, 17493.0, 17479.0, 17475.0, 17473.0, 17467.0, 17497.0, 17528.0, 17498.0, 17476.0, 17474.0, 17471.0, 17467.0, 17466.0, 17463.0, 17448.0, 17455.0, 17453.0, 17457.0, 17450.0, 17465.0, 17473.0, 17499.0, 17483.0, 17475.0, 17467.0, 17476.0, 17485.0, 17495.0, 17477.0, 17485.0, 17470.0, 17481.0, 17472.0, 17491.0, 17507.0, 17480.0, 17476.0, 17482.0, 17493.0, 17487.0, 17486.0, 17477.0, 17480.0, 17488.0, 17483.0, 17483.0, 17497.0, 17504.0, 17494.0, 17499.0, 17511.0, 17488.0, 17480.0, 17476.0, 17475.0, 17472.0, 17472.0, 17486.0, 17481.0, 17481.0, 17483.0, 17494.0, 17509.0, 17505.0, 17480.0, 17464.0, 17454.0, 17466.0, 17483.0, 17474.0, 17490.0, 17481.0, 17471.0, 17479.0, 17497.0, 17516.0, 17485.0, 17479.0, 17488.0, 17513.0, 17518.0, 17533.0, 17529.0],
      "WindowWidth": [44877.0, 44728.0, 44660.0, 44606.0, 44648.0, 44669.0, 44740.0, 44796.0, 44877.0, 44923.0, 44933.0, 45012.0, 45082.0, 45077.0, 45045.0, 45018.0, 45045.0, 45107.0, 45138.0, 45183.0, 45182.0, 45130.0, 45100.0, 45045.0, 45055.0, 45056.0, 45032.0, 45047.0, 45076.0, 45194.0, 45157.0, 45016.0, 44925.0, 44927.0, 44924.0, 44923.0, 44943.0, 44969.0, 44918.0, 44882.0, 44941.0, 44912.0, 44921.0, 44915.0, 44971.0, 45016.0, 45039.0, 45019.0, 44944.0, 44960.0, 44950.0, 44985.0, 44973.0, 45065.0, 45036.0, 44997.0, 44980.0, 45006.0, 44996.0, 45003.0, 45018.0, 45015.0, 45049.0, 45035.0, 45017.0, 45004.0, 45021.0, 45053.0, 45040.0, 44976.0, 44925.0, 44898.0, 44918.0, 44926.0, 44978.0, 44983.0, 44961.0, 44920.0, 44963.0, 44896.0, 44886.0, 44941.0, 44927.0, 44931.0, 44999.0, 44966.0, 44951.0, 44890.0, 44879.0, 44888.0, 44872.0, 44904.0, 44911.0, 44919.0, 44927.0, 44969.0, 44965.0, 44960.0, 44853.0, 44697.0, 44814.0, 44848.0, 44871.0, 44914.0, 44912.0, 44888.0, 44877.0, 44859.0, 44906.0, 44978.0, 44970.0, 44914.0, 44893.0, 44932.0, 44950.0, 44922.0, 44906.0, 44882.0, 44871.0, 44911.0, 44976.0, 45005.0, 44944.0, 44917.0, 44884.0, 44896.0, 44945.0, 44989.0, 44902.0, 44855.0, 44927.0, 44937.0, 44934.0, 44968.0, 44952.0, 44943.0, 44941.0, 44912.0, 44910.0, 44929.0, 45019.0, 45059.0, 44994.0, 44899.0, 44885.0, 44896.0, 44892.0, 44827.0, 44850.0, 44888.0, 44819.0, 44828.0, 44833.0, 44852.0, 44879.0, 44900.0, 44921.0, 44931.0, 44899.0, 44893.0, 44913.0, 44958.0, 44918.0, 44924.0, 44930.0, 44906.0, 44868.0, 44872.0, 44940.0, 44951.0, 44890.0, 44873.0, 44893.0, 44965.0, 44950.0, 44933.0, 44886.0, 44841.0, 44850.0, 44870.0, 44884.0, 44906.0, 44923.0, 44953.0, 44956.0, 44954.0, 44934.0, 44888.0, 44873.0, 44849.0, 44859.0, 44884.0, 44896.0, 44916.0, 44869.0, 44861.0, 44907.0, 44945.0, 44999.0, 44949.0, 44860.0, 44818.0, 44879.0, 44881.0, 44885.0, 44961.0, 44915.0, 44809.0, 44866.0, 45018.0, 45007.0, 44940.0, 44912.0, 44984.0, 45007.0, 45076.0, 45075.0, 45081.0]
    },
    "slices": {}
  }
}