{
  "AcquisitionMatrixPE": 116,
  "AcquisitionNumber": 1,
  "AcquisitionTime": "19:22:15.880000",
  "BandwidthPerPixelPhaseEncode": 18.539,
  "BaseResolution": 116,
  "BodyPartExamined": "HEAD",
  "ConsistencyInfo": "N4_VD13D_LATEST_20130810",
  "ConversionSoftware": "dcm2niix",
  "ConversionSoftwareVersion": "v1.0.20190410  (JP2:OpenJPEG) (JP-LS:CharLS) GCC5.5.0",
  "DerivedVendorReportedEchoSpacing": 0.000930006,
  "DeviceSerialNumber": "66014",
  "DwellTime": 3e-06,
  "EchoTime": 0.03,
  "EchoTrainLength": 50,
  "EffectiveEchoSpacing": 0.000465003,
  "FlipAngle": 81,
  "ImageComments": "Unaliased_MB3_PE4",
  "ImageOrientationPatientDICOM": [0.999021, -0.0210055, -0.0389221, 0.0156939, 0.991117, -0.132066],
  "ImageType": [
    "ORIGINAL",
    "PRIMARY",
    "M",
    "MB",
    "ND",
    "MOSAIC"
],
  "ImagingFrequency": 123.261,
  "InPlanePhaseEncodingDirectionDICOM": "COL",
  "InstitutionAddress": "Yiheyuan_Road_5_Beijing_Haidian_CN_100871",
  "InstitutionName": "Peking_University",
  "InstitutionalDepartmentName": "Department",
  "MRAcquisitionType": "2D",
  "MagneticFieldStrength": 3,
  "Manufacturer": "Siemens",
  "ManufacturersModelName": "Prisma",
  "Modality": "MR",
  "MultibandAccelerationFactor": 3,
  "ParallelReductionFactorInPlane": 2,
  "PartialFourier": 0.875,
  "PatientPosition": "HFS",
  "PercentPhaseFOV": 100,
  "PhaseEncodingDirection": "j-",
  "PhaseEncodingSteps": 101,
  "PhaseResolution": 1,
  "PixelBandwidth": 1435,
  "ProcedureStepDescription": "Research_Projects_64CH",
  "ProtocolName": "mbep2d_bold_MB3_learn3",
  "PulseSequenceDetails": "%CustomerSeq%_cmrr_mbep2d_bold",
  "ReceiveCoilActiveElements": "HC1-7",
  "ReceiveCoilName": "HeadNeck_64",
  "ReconMatrixPE": 116,
  "RefLinesPE": 44,
  "RepetitionTime": 2,
  "SAR": 0.0513064,
  "ScanOptions": "PFP_FS",
  "ScanningSequence": "EP",
  "SequenceName": "epfid2d1_116",
  "SequenceVariant": "SK_SS",
  "SeriesDescription": "mbep2d_bold_MB3_learn3",
  "SeriesNumber": 8,
  "ShimSetting": [-3456, -2140, -1950, 317, -62, -119, 94, 31],
  "SliceThickness": 1.9,
  "SliceTiming": [0, 0.9075, 1.815, 0.7425, 1.65, 0.5775, 1.485, 0.4125, 1.32, 0.2475, 1.155, 0.0825, 0.99, 1.8975, 0.825, 1.7325, 0.66, 1.5675, 0.495, 1.4025, 0.33, 1.2375, 0.165, 1.0725, 0, 0.9075, 1.815, 0.7425, 1.65, 0.5775, 1.485, 0.4125, 1.32, 0.2475, 1.155, 0.0825, 0.99, 1.8975, 0.825, 1.7325, 0.66, 1.5675, 0.495, 1.4025, 0.33, 1.2375, 0.165, 1.0725, 0, 0.9075, 1.815, 0.7425, 1.65, 0.5775, 1.485, 0.4125, 1.32, 0.2475, 1.155, 0.0825, 0.99, 1.8975, 0.825, 1.7325, 0.66, 1.5675, 0.495, 1.4025, 0.33, 1.2375, 0.165, 1.0725],
  "SoftwareVersions": "syngo_MR_D13D",
  "SpacingBetweenSlices": 1.9,
  "StationName": "AWP66014",
  "TaskName": "updating",
  "TotalReadoutTime": 0.0534753,
  "TxRefAmp": 220.065,
  "WipMemBlock": "8fedc6db-6e80-428d-9c5f-fb68bf86c160||Sequence: vd13d/master r/0735857; Nov 19 2014 09:21:40 by eja",
  "dcmmeta_affine": [
    [-1.8946958780288696, 0.02976435050368309, -0.07856585085391998, 110.48521423339844],
    [0.039837926626205444, 1.8797041177749634, -0.2495189905166626, -99.24951934814453],
    [-0.07381778210401535, 0.25046974420547485, 1.8819053173065186, -77.58528900146484],
    [0.0, 0.0, 0.0, 1.0]
],
  "dcmmeta_reorient_transform": [
    [0.0, -1.0, 0.0, 115.0],
    [1.0, 0.0, 0.0, 0.0],
    [0.0, 0.0, 1.0, 0.0],
    [0.0, 0.0, 0.0, 1.0]
],
  "dcmmeta_shape": [116, 116, 72, 218],
  "dcmmeta_slice_dim": 2,
  "dcmmeta_version": 0.6,
  "global": {
    "const": {
      "AcquisitionMatrix": [116, 0, 0, 116],
      "AngioFlag": "N",
      "BitsAllocated": 16,
      "BitsStored": 16,
      "BodyPartExamined": "HEAD",
      "Columns": 1044,
      "EchoNumbers": 1,
      "EchoTime": 30.0,
      "EchoTrainLength": 50,
      "FlipAngle": 81.0,
      "HighBit": 15,
      "ImageOrientationPatient": [0.9990214416891, -0.02100545166, -0.0389221022812, 0.01569393034264, 0.99111669785828, -0.132065861512],
      "ImagePositionPatient": [-1006.8576475308, -970.61434705296, 101.68814159002],
      "ImageType": [
        "ORIGINAL",
        "PRIMARY",
        "M",
        "MB",
        "ND",
        "MOSAIC"
],
      "ImagedNucleus": "1H",
      "ImagingFrequency": 123.260624,
      "InPlanePhaseEncodingDirection": "COL",
      "LargestImagePixelValue": 65535,
      "MRAcquisitionType": "2D",
      "MagneticFieldStrength": 3.0,
      "Manufacturer": "SIEMENS",
      "ManufacturerModelName": "Prisma",
      "Modality": "MR",
      "NumberOfAverages": 1.0,
      "NumberOfPhaseEncodingSteps": 101,
      "PercentPhaseFieldOfView": 100.0,
      "PercentSampling": 100.0,
      "PerformedProcedureStepStartTime": "184820.750000",
      "PhotometricInterpretation": "MONOCHROME2",
      "PixelBandwidth": 1435.0,
      "PixelRepresentation": 0,
      "PixelSpacing": [1.8965517282486, 1.8965517282486],
      "ProtocolName": "mbep2d_bold_MB3_learn3",
      "RepetitionTime": 2000.0,
      "Rows": 1044,
      "SAR": 0.05130639942978,
      "SamplesPerPixel": 1,
      "ScanOptions": [
        "PFP",
        "FS"
],
      "ScanningSequence": "EP",
      "SequenceName": "epfid2d1_116",
      "SequenceVariant": [
        "SK",
        "SS"
],
      "SeriesDescription": "mbep2d_bold_MB3_learn3",
      "SeriesNumber": 8,
      "SeriesTime": "192231.072000",
      "SliceLocation": -68.380994368833,
      "SliceThickness": 1.8999999761581,
      "SmallestImagePixelValue": 0,
      "SoftwareVersions": "syngo MR D13D",
      "SpacingBetweenSlices": 1.9000000215692,
      "SpecificCharacterSet": "ISO_IR 100",
      "StudyID": "1",
      "StudyTime": "184820.673000",
      "TimeOfLastCalibration": ["123723.000000", "123723.000000"],
      "TransmitCoilName": "Body",
      "VariableFlipAngleFlag": "N",
      "WindowCenterWidthExplanation": "Algo1",
      "dBdt": 0.0},
    "slices": {}
  },
  "time": {
    "samples": {
      "AcquisitionNumber": [1, 2, 3, 4, 5, 6, 7, 8, 9, 10, 11, 12, 13, 14, 15, 16, 17, 18, 19, 20, 21, 22, 23, 24, 25, 26, 27, 28, 29, 30, 31, 32, 33, 34, 35, 36, 37, 38, 39, 40, 41, 42, 43, 44, 45, 46, 47, 48, 49, 50, 51, 52, 53, 54, 55, 56, 57, 58, 59, 60, 61, 62, 63, 64, 65, 66, 67, 68, 69, 70, 71, 72, 73, 74, 75, 76, 77, 78, 79, 80, 81, 82, 83, 84, 85, 86, 87, 88, 89, 90, 91, 92, 93, 94, 95, 96, 97, 98, 99, 100, 101, 102, 103, 104, 105, 106, 107, 108, 109, 110, 111, 112, 113, 114, 115, 116, 117, 118, 119, 120, 121, 122, 123, 124, 125, 126, 127, 128, 129, 130, 131, 132, 133, 134, 135, 136, 137, 138, 139, 140, 141, 142, 143, 144, 145, 146, 147, 148, 149, 150, 151, 152, 153, 154, 155, 156, 157, 158, 159, 160, 161, 162, 163, 164, 165, 166, 167, 168, 169, 170, 171, 172, 173, 174, 175, 176, 177, 178, 179, 180, 181, 182, 183, 184, 185, 186, 187, 188, 189, 190, 191, 192, 193, 194, 195, 196, 197, 198, 199, 200, 201, 202, 203, 204, 205, 206, 207, 208, 209, 210, 211, 212, 213, 214, 215, 216, 217, 218],
      "AcquisitionTime": ["192215.880000", "192217.880000", "192219.882500", "192221.882500", "192223.882500", "192225.882500", "192227.882500", "192229.882500", "192231.882500", "192233.882500", "192235.882500", "192237.882500", "192239.882500", "192241.882500", "192243.882500", "192245.882500", "192247.882500", "192249.882500", "192251.882500", "192253.882500", "192255.882500", "192257.882500", "192259.882500", "192301.882500", "192303.882500", "192305.882500", "192307.882500", "192309.882500", "192311.882500", "192313.882500", "192315.882500", "192317.882500", "192319.882500", "192321.882500", "192323.882500", "192325.882500", "192327.882500", "192329.882500", "192331.882500", "192333.882500", "192335.882500", "192337.882500", "192339.882500", "192341.882500", "192343.882500", "192345.882500", "192347.882500", "192349.882500", "192351.882500", "192353.882500", "192355.882500", "192357.882500", "192359.882500", "192401.882500", "192403.882500", "192405.882500", "192407.882500", "192409.882500", "192411.882500", "192413.882500", "192415.882500", "192417.882500", "192419.882500", "192421.882500", "192423.882500", "192425.882500", "192427.882500", "192429.882500", "192431.882500", "192433.882500", "192435.882500", "192437.882500", "192439.882500", "192441.882500", "192443.882500", "192445.882500", "192447.882500", "192449.882500", "192451.882500", "192453.882500", "192455.882500", "192457.882500", "192459.882500", "192501.882500", "192503.882500", "192505.882500", "192507.882500", "192509.882500", "192511.882500", "192513.882500", "192515.882500", "192517.882500", "192519.882500", "192521.882500", "192523.882500", "192525.882500", "192527.882500", "192529.882500", "192531.882500", "192533.882500", "192535.882500", "192537.882500", "192539.882500", "192541.882500", "192543.882500", "192545.882500", "192547.882500", "192549.882500", "192551.882500", "192553.882500", "192555.882500", "192557.882500", "192559.882500", "192601.882500", "192603.882500", "192605.882500", "192607.882500", "192609.882500", "192611.882500", "192613.882500", "192615.882500", "192617.882500", "192619.882500", "192621.882500", "192623.882500", "192625.882500", "192627.882500", "192629.882500", "192631.882500", "192633.882500", "192635.882500", "192637.882500", "192639.882500", "192641.882500", "192643.882500", "192645.882500", "192647.882500", "192649.882500", "192651.882500", "192653.882500", "192655.882500", "192657.882500", "192659.882500", "192701.882500", "192703.882500", "192705.882500", "192707.882500", "192709.882500", "192711.882500", "192713.882500", "192715.882500", "192717.882500", "192719.882500", "192721.882500", "192723.882500", "192725.882500", "192727.882500", "192729.882500", "192731.882500", "192733.882500", "192735.882500", "192737.882500", "192739.882500", "192741.882500", "192743.882500", "192745.882500", "192747.882500", "192749.882500", "192751.882500", "192753.882500", "192755.882500", "192757.882500", "192759.882500", "192801.882500", "192803.882500", "192805.882500", "192807.882500", "192809.882500", "192811.882500", "192813.882500", "192815.882500", "192817.882500", "192819.882500", "192821.882500", "192823.882500", "192825.882500", "192827.882500", "192829.882500", "192831.882500", "192833.882500", "192835.882500", "192837.882500", "192839.882500", "192841.882500", "192843.882500", "192845.882500", "192847.882500", "192849.882500", "192851.882500", "192853.882500", "192855.882500", "192857.882500", "192859.882500", "192901.882500", "192903.882500", "192905.882500", "192907.882500", "192909.882500", "192911.882500", "192913.882500", "192915.882500", "192917.882500", "192919.882500", "192921.882500", "192923.882500", "192925.882500", "192927.882500", "192929.882500"],
      "ContentTime": ["192231.077000", "192232.069000", "192233.070000", "192233.074000", "192234.070000", "192235.068000", "192235.073000", "192236.069000", "192237.069000", "192238.070000", "192239.069000", "192240.570000", "192242.570000", "192244.569000", "192246.569000", "192248.570000", "192250.570000", "192252.570000", "192254.570000", "192256.570000", "192258.570000", "192300.570000", "192302.569000", "192304.569000", "192306.569000", "192308.569000", "192310.570000", "192312.570000", "192314.571000", "192316.570000", "192318.568000", "192320.568000", "192322.571000", "192324.569000", "192326.569000", "192328.570000", "192330.569000", "192332.570000", "192334.569000", "192336.569000", "192338.568000", "192340.570000", "192342.569000", "192344.569000", "192346.570000", "192348.570000", "192350.571000", "192352.570000", "192354.569000", "192356.569000", "192358.569000", "192400.570000", "192402.570000", "192404.568000", "192406.570000", "192408.570000", "192410.570000", "192412.569000", "192414.569000", "192416.570000", "192418.570000", "192420.570000", "192422.570000", "192424.572000", "192426.571000", "192428.569000", "192430.569000", "192432.570000", "192434.570000", "192436.570000", "192438.570000", "192440.570000", "192442.570000", "192444.568000", "192446.569000", "192448.569000", "192450.570000", "192452.570000", "192454.570000", "192456.569000", "192458.570000", "192500.570000", "192502.570000", "192504.569000", "192506.567000", "192508.569000", "192510.571000", "192512.570000", "192514.570000", "192516.571000", "192518.570000", "192520.570000", "192522.567000", "192524.568000", "192526.570000", "192528.570000", "192530.569000", "192532.570000", "192534.570000", "192536.579000", "192538.569000", "192540.569000", "192542.571000", "192544.570000", "192546.570000", "192548.570000", "192550.568000", "192552.569000", "192554.569000", "192556.569000", "192558.568000", "192600.571000", "192602.570000", "192604.570000", "192606.569000", "192608.570000", "192610.570000", "192612.570000", "192614.569000", "192616.568000", "192618.568000", "192620.569000", "192622.571000", "192624.570000", "192626.572000", "192628.570000", "192630.570000", "192632.569000", "192634.569000", "192636.569000", "192638.570000", "192640.570000", "192642.570000", "192644.570000", "192646.570000", "192648.568000", "192650.568000", "192652.569000", "192654.570000", "192656.570000", "192658.570000", "192700.570000", "192702.570000", "192704.573000", "192706.568000", "192708.569000", "192710.572000", "192712.570000", "192714.570000", "192716.570000", "192718.572000", "192720.570000", "192722.570000", "192724.569000", "192726.572000", "192728.569000", "192730.570000", "192732.570000", "192734.570000", "192736.570000", "192738.570000", "192740.570000", "192742.569000", "192744.572000", "192746.570000", "192748.570000", "192750.569000", "192752.569000", "192754.570000", "192756.569000", "192758.569000", "192800.569000", "192802.569000", "192804.569000", "192806.569000", "192808.570000", "192810.570000", "192812.570000", "192814.569000", "192816.568000", "192818.569000", "192820.570000", "192822.570000", "192824.568000", "192826.570000", "192828.570000", "192830.570000", "192832.570000", "192834.569000", "192836.569000", "192838.570000", "192840.569000", "192842.569000", "192844.569000", "192846.569000", "192848.569000", "192850.569000", "192852.569000", "192854.570000", "192856.570000", "192858.570000", "192900.570000", "192902.570000", "192904.570000", "192906.570000", "192908.569000", "192910.569000", "192912.570000", "192914.570000", "192916.570000", "192918.569000", "192920.570000", "192922.570000", "192924.570000", "192926.569000", "192928.569000", "192930.569000", "192932.314000"],
      "InstanceCreationTime": ["192231.077000", "192232.069000", "192233.070000", "192233.074000", "192234.070000", "192235.068000", "192235.073000", "192236.069000", "192237.069000", "192238.070000", "192239.069000", "192240.570000", "192242.570000", "192244.569000", "192246.569000", "192248.570000", "192250.570000", "192252.570000", "192254.570000", "192256.570000", "192258.570000", "192300.570000", "192302.569000", "192304.569000", "192306.569000", "192308.569000", "192310.570000", "192312.570000", "192314.571000", "192316.570000", "192318.568000", "192320.568000", "192322.571000", "192324.569000", "192326.569000", "192328.570000", "192330.569000", "192332.570000", "192334.569000", "192336.569000", "192338.568000", "192340.570000", "192342.569000", "192344.569000", "192346.570000", "192348.570000", "192350.571000", "192352.570000", "192354.569000", "192356.569000", "192358.569000", "192400.570000", "192402.570000", "192404.568000", "192406.570000", "192408.570000", "192410.570000", "192412.569000", "192414.569000", "192416.570000", "192418.570000", "192420.570000", "192422.570000", "192424.572000", "192426.571000", "192428.569000", "192430.569000", "192432.570000", "192434.570000", "192436.570000", "192438.570000", "192440.570000", "192442.570000", "192444.568000", "192446.569000", "192448.569000", "192450.570000", "192452.570000", "192454.570000", "192456.569000", "192458.570000", "192500.570000", "192502.570000", "192504.569000", "192506.567000", "192508.569000", "192510.571000", "192512.570000", "192514.570000", "192516.571000", "192518.570000", "192520.570000", "192522.567000", "192524.568000", "192526.570000", "192528.570000", "192530.569000", "192532.570000", "192534.570000", "192536.579000", "192538.569000", "192540.569000", "192542.571000", "192544.570000", "192546.570000", "192548.570000", "192550.568000", "192552.569000", "192554.569000", "192556.569000", "192558.568000", "192600.571000", "192602.570000", "192604.570000", "192606.569000", "192608.570000", "192610.570000", "192612.570000", "192614.569000", "192616.568000", "192618.568000", "192620.569000", "192622.571000", "192624.570000", "192626.572000", "192628.570000", "192630.570000", "192632.569000", "192634.569000", "192636.569000", "192638.570000", "192640.570000", "192642.570000", "192644.570000", "192646.570000", "192648.568000", "192650.568000", "192652.569000", "192654.570000", "192656.570000", "192658.570000", "192700.570000", "192702.570000", "192704.573000", "192706.568000", "192708.569000", "192710.572000", "192712.570000", "192714.570000", "192716.570000", "192718.572000", "192720.570000", "192722.570000", "192724.569000", "192726.572000", "192728.569000", "192730.570000", "192732.570000", "192734.570000", "192736.570000", "192738.570000", "192740.570000", "192742.569000", "192744.572000", "192746.570000", "192748.570000", "192750.569000", "192752.569000", "192754.570000", "192756.569000", "192758.569000", "192800.569000", "192802.569000", "192804.569000", "192806.569000", "192808.570000", "192810.570000", "192812.570000", "192814.569000", "192816.568000", "192818.569000", "192820.570000", "192822.570000", "192824.568000", "192826.570000", "192828.570000", "192830.570000", "192832.570000", "192834.569000", "192836.569000", "192838.570000", "192840.569000", "192842.569000", "192844.569000", "192846.569000", "192848.569000", "192850.569000", "192852.569000", "192854.570000", "192856.570000", "192858.570000", "192900.570000", "192902.570000", "192904.570000", "192906.570000", "192908.569000", "192910.569000", "192912.570000", "192914.570000", "192916.570000", "192918.569000", "192920.570000", "192922.570000", "192924.570000", "192926.569000", "192928.569000", "192930.569000", "192932.314000"],
      "InstanceNumber": [1, 2, 3, 4, 5, 6, 7, 8, 9, 10, 11, 12, 13, 14, 15, 16, 17, 18, 19, 20, 21, 22, 23, 24, 25, 26, 27, 28, 29, 30, 31, 32, 33, 34, 35, 36, 37, 38, 39, 40, 41, 42, 43, 44, 45, 46, 47, 48, 49, 50, 51, 52, 53, 54, 55, 56, 57, 58, 59, 60, 61, 62, 63, 64, 65, 66, 67, 68, 69, 70, 71, 72, 73, 74, 75, 76, 77, 78, 79, 80, 81, 82, 83, 84, 85, 86, 87, 88, 89, 90, 91, 92, 93, 94, 95, 96, 97, 98, 99, 100, 101, 102, 103, 104, 105, 106, 107, 108, 109, 110, 111, 112, 113, 114, 115, 116, 117, 118, 119, 120, 121, 122, 123, 124, 125, 126, 127, 128, 129, 130, 131, 132, 133, 134, 135, 136, 137, 138, 139, 140, 141, 142, 143, 144, 145, 146, 147, 148, 149, 150, 151, 152, 153, 154, 155, 156, 157, 158, 159, 160, 161, 162, 163, 164, 165, 166, 167, 168, 169, 170, 171, 172, 173, 174, 175, 176, 177, 178, 179, 180, 181, 182, 183, 184, 185, 186, 187, 188, 189, 190, 191, 192, 193, 194, 195, 196, 197, 198, 199, 200, 201, 202, 203, 204, 205, 206, 207, 208, 209, 210, 211, 212, 213, 214, 215, 216, 217, 218],
      "WindowCenter": [16763.0, 16749.0, 16743.0, 16743.0, 16762.0, 16746.0, 16742.0, 16733.0, 16745.0, 16741.0, 16727.0, 16718.0, 16736.0, 16747.0, 16742.0, 16722.0, 16733.0, 16736.0, 16727.0, 16730.0, 16720.0, 16724.0, 16703.0, 16718.0, 16743.0, 16742.0, 16745.0, 16738.0, 16742.0, 16757.0, 16766.0, 16742.0, 16746.0, 16750.0, 16751.0, 16761.0, 16752.0, 16772.0, 16777.0, 16770.0, 16753.0, 16757.0, 16764.0, 16772.0, 16764.0, 16762.0, 16761.0, 16772.0, 16774.0, 16747.0, 16754.0, 16773.0, 16785.0, 16791.0, 16795.0, 16789.0, 16784.0, 16779.0, 16761.0, 16762.0, 16767.0, 16749.0, 16753.0, 16761.0, 16765.0, 16791.0, 16799.0, 16804.0, 16786.0, 16803.0, 16801.0, 16787.0, 16827.0, 16793.0, 16791.0, 16800.0, 16820.0, 16807.0, 16789.0, 16794.0, 16798.0, 16785.0, 16782.0, 16780.0, 16785.0, 16791.0, 16805.0, 16780.0, 16780.0, 16786.0, 16792.0, 16791.0, 16789.0, 16788.0, 16785.0, 16782.0, 16778.0, 16770.0, 16760.0, 16783.0, 16777.0, 16783.0, 16769.0, 16783.0, 16778.0, 16779.0, 16780.0, 16789.0, 16779.0, 16787.0, 16782.0, 16777.0, 16783.0, 16786.0, 16777.0, 16777.0, 16771.0, 16767.0, 16770.0, 16765.0, 16773.0, 16787.0, 16786.0, 16796.0, 16810.0, 16812.0, 16796.0, 16786.0, 16824.0, 16828.0, 16815.0, 16803.0, 16809.0, 16800.0, 16797.0, 16817.0, 16817.0, 16811.0, 16820.0, 16828.0, 16825.0, 16816.0, 16818.0, 16810.0, 16809.0, 16825.0, 16804.0, 16830.0, 16816.0, 16808.0, 16806.0, 16790.0, 16809.0, 16811.0, 16817.0, 16807.0, 16824.0, 16827.0, 16838.0, 16799.0, 16805.0, 16798.0, 16789.0, 16801.0, 16799.0, 16796.0, 16797.0, 16802.0, 16808.0, 16812.0, 16830.0, 16824.0, 16823.0, 16821.0, 16814.0, 16805.0, 16833.0, 16805.0, 16801.0, 16822.0, 16818.0, 16809.0, 16793.0, 16785.0, 16800.0, 16805.0, 16819.0, 16837.0, 16844.0, 16823.0, 16802.0, 16795.0, 16827.0, 16838.0, 16844.0, 16845.0, 16829.0, 16814.0, 16834.0, 16831.0, 16827.0, 16803.0, 16814.0, 16828.0, 16824.0, 16815.0, 16802.0, 16817.0, 16820.0, 16829.0, 16831.0, 16820.0, 16814.0, 16777.0, 16802.0, 16804.0, 16814.0, 16805.0],
      "WindowWidth": [46770.0, 46667.0, 46636.0, 46650.0, 46640.0, 46588.0, 46561.0, 46580.0, 46564.0, 46572.0, 46484.0, 46452.0, 46492.0, 46578.0, 46562.0, 46558.0, 46528.0, 46517.0, 46457.0, 46407.0, 46401.0, 46380.0, 46212.0, 46376.0, 46489.0, 46459.0, 46475.0, 46430.0, 46485.0, 46564.0, 46571.0, 46602.0, 46541.0, 46520.0, 46548.0, 46568.0, 46613.0, 46656.0, 46684.0, 46677.0, 46626.0, 46589.0, 46583.0, 46628.0, 46661.0, 46672.0, 46632.0, 46615.0, 46591.0, 46609.0, 46641.0, 46695.0, 46757.0, 46733.0, 46669.0, 46653.0, 46675.0, 46658.0, 46644.0, 46618.0, 46611.0, 46573.0, 46549.0, 46581.0, 46624.0, 46697.0, 46704.0, 46653.0, 46704.0, 46691.0, 46623.0, 46625.0, 46604.0, 46567.0, 46552.0, 46611.0, 46689.0, 46680.0, 46625.0, 46565.0, 46568.0, 46570.0, 46580.0, 46593.0, 46636.0, 46627.0, 46623.0, 46566.0, 46515.0, 46534.0, 46525.0, 46526.0, 46524.0, 46563.0, 46612.0, 46584.0, 46542.0, 46549.0, 46566.0, 46533.0, 46554.0, 46558.0, 46573.0, 46597.0, 46591.0, 46567.0, 46608.0, 46641.0, 46645.0, 46612.0, 46634.0, 46603.0, 46556.0, 46559.0, 46620.0, 46631.0, 46598.0, 46571.0, 46562.0, 46544.0, 46577.0, 46628.0, 46666.0, 46623.0, 46711.0, 46647.0, 46598.0, 46605.0, 46673.0, 46752.0, 46728.0, 46643.0, 46634.0, 46651.0, 46688.0, 46728.0, 46692.0, 46701.0, 46719.0, 46700.0, 46711.0, 46691.0, 46667.0, 46649.0, 46660.0, 46735.0, 46732.0, 46699.0, 46651.0, 46658.0, 46657.0, 46670.0, 46672.0, 46659.0, 46676.0, 46697.0, 46724.0, 46724.0, 46692.0, 46638.0, 46641.0, 46609.0, 46643.0, 46665.0, 46675.0, 46597.0, 46597.0, 46588.0, 46618.0, 46727.0, 46803.0, 46758.0, 46689.0, 46679.0, 46664.0, 46721.0, 46729.0, 46733.0, 46691.0, 46707.0, 46755.0, 46723.0, 46672.0, 46652.0, 46664.0, 46707.0, 46758.0, 46849.0, 46802.0, 46720.0, 46626.0, 46622.0, 46712.0, 46837.0, 46813.0, 46747.0, 46700.0, 46727.0, 46715.0, 46701.0, 46645.0, 46679.0, 46738.0, 46711.0, 46615.0, 46608.0, 46601.0, 46613.0, 46668.0, 46752.0, 46700.0, 46612.0, 46609.0, 46369.0, 46637.0, 46650.0, 46711.0, 46666.0]
    },
    "slices": {}
  }
}