{
  "AcquisitionMatrixPE": 116,
  "AcquisitionNumber": 1,
  "AcquisitionTime": "19:13:53.380000",
  "BandwidthPerPixelPhaseEncode": 18.539,
  "BaseResolution": 116,
  "BodyPartExamined": "HEAD",
  "ConsistencyInfo": "N4_VD13D_LATEST_20130810",
  "ConversionSoftware": "dcm2niix",
  "ConversionSoftwareVersion": "v1.0.20190410  (JP2:OpenJPEG) (JP-LS:CharLS) GCC5.5.0",
  "DerivedVendorReportedEchoSpacing": 0.000930006,
  "DeviceSerialNumber": "66014",
  "DwellTime": 3e-06,
  "EchoTime": 0.03,
  "EchoTrainLength": 50,
  "EffectiveEchoSpacing": 0.000465003,
  "FlipAngle": 81,
  "ImageComments": "Unaliased_MB3_PE4",
  "ImageOrientationPatientDICOM": [0.999021, -0.0210055, -0.0389221, 0.0156939, 0.991117, -0.132066],
  "ImageType": [
    "ORIGINAL",
    "PRIMARY",
    "M",
    "MB",
    "ND",
    "MOSAIC"
],
  "ImagingFrequency": 123.261,
  "InPlanePhaseEncodingDirectionDICOM": "COL",
  "InstitutionAddress": "Yiheyuan_Road_5_Beijing_Haidian_CN_100871",
  "InstitutionName": "Peking_University",
  "InstitutionalDepartmentName": "Department",
  "MRAcquisitionType": "2D",
  "MagneticFieldStrength": 3,
  "Manufacturer": "Siemens",
  "ManufacturersModelName": "Prisma",
  "Modality": "MR",
  "MultibandAccelerationFactor": 3,
  "ParallelReductionFactorInPlane": 2,
  "PartialFourier": 0.875,
  "PatientPosition": "HFS",
  "PercentPhaseFOV": 100,
  "PhaseEncodingDirection": "j-",
  "PhaseEncodingSteps": 101,
  "PhaseResolution": 1,
  "PixelBandwidth": 1435,
  "ProcedureStepDescription": "Research_Projects_64CH",
  "ProtocolName": "mbep2d_bold_MB3_learn2",
  "PulseSequenceDetails": "%CustomerSeq%_cmrr_mbep2d_bold",
  "ReceiveCoilActiveElements": "HC1-7",
  "ReceiveCoilName": "HeadNeck_64",
  "ReconMatrixPE": 116,
  "RefLinesPE": 44,
  "RepetitionTime": 2,
  "SAR": 0.0513064,
  "ScanOptions": "PFP_FS",
  "ScanningSequence": "EP",
  "SequenceName": "epfid2d1_116",
  "SequenceVariant": "SK_SS",
  "SeriesDescription": "mbep2d_bold_MB3_learn2",
  "SeriesNumber": 7,
  "ShimSetting": [-3456, -2140, -1950, 317, -62, -119, 94, 31],
  "SliceThickness": 1.9,
  "SliceTiming": [0, 0.9075, 1.815, 0.7425, 1.65, 0.5775, 1.485, 0.4125, 1.32, 0.2475, 1.155, 0.0825, 0.99, 1.8975, 0.825, 1.7325, 0.66, 1.5675, 0.495, 1.4025, 0.33, 1.2375, 0.165, 1.0725, 0, 0.9075, 1.815, 0.7425, 1.65, 0.5775, 1.485, 0.4125, 1.32, 0.2475, 1.155, 0.0825, 0.99, 1.8975, 0.825, 1.7325, 0.66, 1.5675, 0.495, 1.4025, 0.33, 1.2375, 0.165, 1.0725, 0, 0.9075, 1.815, 0.7425, 1.65, 0.5775, 1.485, 0.4125, 1.32, 0.2475, 1.155, 0.0825, 0.99, 1.8975, 0.825, 1.7325, 0.66, 1.5675, 0.495, 1.4025, 0.33, 1.2375, 0.165, 1.0725],
  "SoftwareVersions": "syngo_MR_D13D",
  "SpacingBetweenSlices": 1.9,
  "StationName": "AWP66014",
  "TaskName": "updating",
  "TotalReadoutTime": 0.0534753,
  "TxRefAmp": 220.065,
  "WipMemBlock": "20bc87c1-37af-445e-98bc-11d1177e3867||Sequence: vd13d/master r/0735857; Nov 19 2014 09:21:40 by eja",
  "dcmmeta_affine": [
    [-1.8946958780288696, 0.02976435050368309, -0.07856585085391998, 110.48521423339844],
    [0.039837926626205444, 1.8797041177749634, -0.2495189905166626, -99.24951934814453],
    [-0.07381778210401535, 0.25046974420547485, 1.8819053173065186, -77.58528900146484],
    [0.0, 0.0, 0.0, 1.0]
],
  "dcmmeta_reorient_transform": [
    [0.0, -1.0, 0.0, 115.0],
    [1.0, 0.0, 0.0, 0.0],
    [0.0, 0.0, 1.0, 0.0],
    [0.0, 0.0, 0.0, 1.0]
],
  "dcmmeta_shape": [116, 116, 72, 218],
  "dcmmeta_slice_dim": 2,
  "dcmmeta_version": 0.6,
  "global": {
    "const": {
      "AcquisitionMatrix": [116, 0, 0, 116],
      "AngioFlag": "N",
      "BitsAllocated": 16,
      "BitsStored": 16,
      "BodyPartExamined": "HEAD",
      "Columns": 1044,
      "EchoNumbers": 1,
      "EchoTime": 30.0,
      "EchoTrainLength": 50,
      "FlipAngle": 81.0,
      "HighBit": 15,
      "ImageOrientationPatient": [0.9990214416891, -0.02100545166, -0.0389221022812, 0.01569393034264, 0.99111669785828, -0.132065861512],
      "ImagePositionPatient": [-1006.8576475308, -970.61434705296, 101.68814159002],
      "ImageType": [
        "ORIGINAL",
        "PRIMARY",
        "M",
        "MB",
        "ND",
        "MOSAIC"
],
      "ImagedNucleus": "1H",
      "ImagingFrequency": 123.260623,
      "InPlanePhaseEncodingDirection": "COL",
      "LargestImagePixelValue": 65535,
      "MRAcquisitionType": "2D",
      "MagneticFieldStrength": 3.0,
      "Manufacturer": "SIEMENS",
      "ManufacturerModelName": "Prisma",
      "Modality": "MR",
      "NumberOfAverages": 1.0,
      "NumberOfPhaseEncodingSteps": 101,
      "PercentPhaseFieldOfView": 100.0,
      "PercentSampling": 100.0,
      "PerformedProcedureStepStartTime": "184820.750000",
      "PhotometricInterpretation": "MONOCHROME2",
      "PixelBandwidth": 1435.0,
      "PixelRepresentation": 0,
      "PixelSpacing": [1.8965517282486, 1.8965517282486],
      "ProtocolName": "mbep2d_bold_MB3_learn2",
      "RepetitionTime": 2000.0,
      "Rows": 1044,
      "SAR": 0.05130639942978,
      "SamplesPerPixel": 1,
      "ScanOptions": [
        "PFP",
        "FS"
],
      "ScanningSequence": "EP",
      "SequenceName": "epfid2d1_116",
      "SequenceVariant": [
        "SK",
        "SS"
],
      "SeriesDescription": "mbep2d_bold_MB3_learn2",
      "SeriesNumber": 7,
      "SeriesTime": "191408.875000",
      "SliceLocation": -68.380994368833,
      "SliceThickness": 1.8999999761581,
      "SmallestImagePixelValue": 0,
      "SoftwareVersions": "syngo MR D13D",
      "SpacingBetweenSlices": 1.9000000215692,
      "SpecificCharacterSet": "ISO_IR 100",
      "StudyID": "1",
      "StudyTime": "184820.673000",
      "TimeOfLastCalibration": ["123723.000000", "123723.000000"],
      "TransmitCoilName": "Body",
      "VariableFlipAngleFlag": "N",
      "WindowCenterWidthExplanation": "Algo1",
      "dBdt": 0.0},
    "slices": {}
  },
  "time": {
    "samples": {
      "AcquisitionNumber": [1, 2, 3, 4, 5, 6, 7, 8, 9, 10, 11, 12, 13, 14, 15, 16, 17, 18, 19, 20, 21, 22, 23, 24, 25, 26, 27, 28, 29, 30, 31, 32, 33, 34, 35, 36, 37, 38, 39, 40, 41, 42, 43, 44, 45, 46, 47, 48, 49, 50, 51, 52, 53, 54, 55, 56, 57, 58, 59, 60, 61, 62, 63, 64, 65, 66, 67, 68, 69, 70, 71, 72, 73, 74, 75, 76, 77, 78, 79, 80, 81, 82, 83, 84, 85, 86, 87, 88, 89, 90, 91, 92, 93, 94, 95, 96, 97, 98, 99, 100, 101, 102, 103, 104, 105, 106, 107, 108, 109, 110, 111, 112, 113, 114, 115, 116, 117, 118, 119, 120, 121, 122, 123, 124, 125, 126, 127, 128, 129, 130, 131, 132, 133, 134, 135, 136, 137, 138, 139, 140, 141, 142, 143, 144, 145, 146, 147, 148, 149, 150, 151, 152, 153, 154, 155, 156, 157, 158, 159, 160, 161, 162, 163, 164, 165, 166, 167, 168, 169, 170, 171, 172, 173, 174, 175, 176, 177, 178, 179, 180, 181, 182, 183, 184, 185, 186, 187, 188, 189, 190, 191, 192, 193, 194, 195, 196, 197, 198, 199, 200, 201, 202, 203, 204, 205, 206, 207, 208, 209, 210, 211, 212, 213, 214, 215, 216, 217, 218],
      "AcquisitionTime": ["191353.380000", "191355.380000", "191357.380000", "191359.380000", "191401.380000", "191403.380000", "191405.380000", "191407.380000", "191409.380000", "191411.380000", "191413.380000", "191415.380000", "191417.380000", "191419.380000", "191421.380000", "191423.380000", "191425.380000", "191427.380000", "191429.380000", "191431.380000", "191433.380000", "191435.380000", "191437.380000", "191439.380000", "191441.380000", "191443.380000", "191445.380000", "191447.380000", "191449.380000", "191451.380000", "191453.380000", "191455.380000", "191457.380000", "191459.380000", "191501.380000", "191503.380000", "191505.380000", "191507.380000", "191509.380000", "191511.380000", "191513.380000", "191515.380000", "191517.380000", "191519.380000", "191521.380000", "191523.380000", "191525.380000", "191527.380000", "191529.380000", "191531.380000", "191533.380000", "191535.380000", "191537.380000", "191539.380000", "191541.380000", "191543.380000", "191545.380000", "191547.380000", "191549.380000", "191551.380000", "191553.380000", "191555.380000", "191557.380000", "191559.380000", "191601.380000", "191603.380000", "191605.380000", "191607.380000", "191609.380000", "191611.380000", "191613.380000", "191615.380000", "191617.380000", "191619.380000", "191621.380000", "191623.380000", "191625.380000", "191627.380000", "191629.380000", "191631.380000", "191633.380000", "191635.380000", "191637.380000", "191639.380000", "191641.380000", "191643.380000", "191645.380000", "191647.380000", "191649.380000", "191651.380000", "191653.380000", "191655.380000", "191657.380000", "191659.380000", "191701.380000", "191703.380000", "191705.380000", "191707.380000", "191709.380000", "191711.380000", "191713.380000", "191715.380000", "191717.380000", "191719.380000", "191721.380000", "191723.380000", "191725.380000", "191727.380000", "191729.380000", "191731.380000", "191733.380000", "191735.380000", "191737.380000", "191739.380000", "191741.380000", "191743.380000", "191745.380000", "191747.380000", "191749.380000", "191751.380000", "191753.380000", "191755.380000", "191757.380000", "191759.380000", "191801.380000", "191803.380000", "191805.380000", "191807.380000", "191809.380000", "191811.380000", "191813.380000", "191815.380000", "191817.380000", "191819.380000", "191821.380000", "191823.380000", "191825.380000", "191827.380000", "191829.380000", "191831.380000", "191833.380000", "191835.380000", "191837.380000", "191839.380000", "191841.380000", "191843.380000", "191845.380000", "191847.380000", "191849.382500", "191851.382500", "191853.382500", "191855.382500", "191857.382500", "191859.382500", "191901.382500", "191903.382500", "191905.382500", "191907.382500", "191909.382500", "191911.382500", "191913.382500", "191915.382500", "191917.382500", "191919.382500", "191921.382500", "191923.382500", "191925.382500", "191927.382500", "191929.382500", "191931.382500", "191933.382500", "191935.382500", "191937.382500", "191939.382500", "191941.382500", "191943.382500", "191945.382500", "191947.382500", "191949.382500", "191951.382500", "191953.382500", "191955.382500", "191957.382500", "191959.382500", "192001.382500", "192003.382500", "192005.382500", "192007.382500", "192009.382500", "192011.382500", "192013.382500", "192015.382500", "192017.382500", "192019.382500", "192021.382500", "192023.382500", "192025.382500", "192027.382500", "192029.382500", "192031.382500", "192033.382500", "192035.382500", "192037.382500", "192039.382500", "192041.382500", "192043.382500", "192045.382500", "192047.382500", "192049.382500", "192051.382500", "192053.382500", "192055.382500", "192057.382500", "192059.382500", "192101.382500", "192103.382500", "192105.382500", "192107.382500"],
      "ContentTime": ["191408.880000", "191409.873000", "191409.877000", "191410.874000", "191411.873000", "191411.877000", "191412.873000", "191413.874000", "191414.873000", "191415.874000", "191416.873000", "191418.373000", "191420.375000", "191422.375000", "191424.374000", "191426.374000", "191428.374000", "191430.374000", "191432.374000", "191434.374000", "191436.374000", "191438.375000", "191440.374000", "191442.374000", "191444.374000", "191446.374000", "191448.374000", "191450.374000", "191452.374000", "191454.375000", "191456.375000", "191458.375000", "191500.373000", "191502.374000", "191504.374000", "191506.374000", "191508.374000", "191510.374000", "191512.373000", "191514.375000", "191516.375000", "191518.374000", "191520.374000", "191522.374000", "191524.372000", "191526.374000", "191528.374000", "191530.374000", "191532.375000", "191534.375000", "191536.374000", "191538.374000", "191540.373000", "191542.374000", "191544.374000", "191546.374000", "191548.375000", "191550.375000", "191552.374000", "191554.374000", "191556.374000", "191558.374000", "191600.374000", "191602.374000", "191604.374000", "191606.374000", "191608.375000", "191610.374000", "191612.374000", "191614.374000", "191616.374000", "191618.374000", "191620.374000", "191622.375000", "191624.375000", "191626.375000", "191628.374000", "191630.374000", "191632.374000", "191634.374000", "191636.374000", "191638.374000", "191640.375000", "191642.375000", "191644.375000", "191646.374000", "191648.373000", "191650.373000", "191652.374000", "191654.373000", "191656.374000", "191658.375000", "191700.374000", "191702.375000", "191704.373000", "191706.374000", "191708.374000", "191710.374000", "191712.373000", "191714.374000", "191716.375000", "191718.375000", "191720.374000", "191722.374000", "191724.373000", "191726.374000", "191728.374000", "191730.374000", "191732.373000", "191734.375000", "191736.374000", "191738.373000", "191740.374000", "191742.373000", "191744.374000", "191746.374000", "191748.394000", "191750.375000", "191752.374000", "191754.374000", "191756.374000", "191758.374000", "191800.372000", "191802.374000", "191804.373000", "191806.373000", "191808.374000", "191810.374000", "191812.373000", "191814.374000", "191816.373000", "191818.374000", "191820.374000", "191822.374000", "191824.374000", "191826.374000", "191828.373000", "191830.374000", "191832.374000", "191834.374000", "191836.374000", "191838.374000", "191840.394000", "191842.378000", "191844.376000", "191846.377000", "191848.374000", "191850.374000", "191852.373000", "191854.374000", "191856.374000", "191858.374000", "191900.375000", "191902.375000", "191904.375000", "191906.374000", "191908.374000", "191910.374000", "191912.374000", "191914.374000", "191916.374000", "191918.375000", "191920.375000", "191922.374000", "191924.372000", "191926.375000", "191928.374000", "191930.374000", "191932.374000", "191934.373000", "191936.374000", "191938.375000", "191940.374000", "191942.375000", "191944.374000", "191946.375000", "191948.374000", "191950.374000", "191952.374000", "191954.375000", "191956.375000", "191958.372000", "192000.373000", "192002.374000", "192004.374000", "192006.383000", "192008.374000", "192010.375000", "192012.378000", "192014.375000", "192016.374000", "192018.374000", "192020.374000", "192022.374000", "192024.374000", "192026.373000", "192028.375000", "192030.374000", "192032.374000", "192034.375000", "192036.374000", "192038.374000", "192040.374000", "192042.374000", "192044.374000", "192046.375000", "192048.374000", "192050.374000", "192052.374000", "192054.374000", "192056.374000", "192058.374000", "192100.374000", "192102.375000", "192104.375000", "192106.375000", "192108.374000", "192110.102000"],
      "InstanceCreationTime": ["191408.880000", "191409.873000", "191409.877000", "191410.874000", "191411.873000", "191411.877000", "191412.873000", "191413.874000", "191414.873000", "191415.874000", "191416.873000", "191418.373000", "191420.375000", "191422.375000", "191424.374000", "191426.374000", "191428.374000", "191430.374000", "191432.374000", "191434.374000", "191436.374000", "191438.375000", "191440.374000", "191442.374000", "191444.374000", "191446.374000", "191448.374000", "191450.374000", "191452.374000", "191454.375000", "191456.375000", "191458.375000", "191500.373000", "191502.374000", "191504.374000", "191506.374000", "191508.374000", "191510.374000", "191512.373000", "191514.375000", "191516.375000", "191518.374000", "191520.374000", "191522.374000", "191524.372000", "191526.374000", "191528.374000", "191530.374000", "191532.375000", "191534.375000", "191536.374000", "191538.374000", "191540.373000", "191542.374000", "191544.374000", "191546.374000", "191548.375000", "191550.375000", "191552.374000", "191554.374000", "191556.374000", "191558.374000", "191600.374000", "191602.374000", "191604.374000", "191606.374000", "191608.375000", "191610.374000", "191612.374000", "191614.374000", "191616.374000", "191618.374000", "191620.374000", "191622.375000", "191624.375000", "191626.375000", "191628.374000", "191630.374000", "191632.374000", "191634.374000", "191636.374000", "191638.374000", "191640.375000", "191642.375000", "191644.375000", "191646.374000", "191648.373000", "191650.373000", "191652.374000", "191654.373000", "191656.374000", "191658.375000", "191700.374000", "191702.375000", "191704.373000", "191706.374000", "191708.374000", "191710.374000", "191712.373000", "191714.374000", "191716.375000", "191718.375000", "191720.374000", "191722.374000", "191724.373000", "191726.374000", "191728.374000", "191730.374000", "191732.373000", "191734.375000", "191736.374000", "191738.373000", "191740.374000", "191742.373000", "191744.374000", "191746.374000", "191748.394000", "191750.375000", "191752.374000", "191754.374000", "191756.374000", "191758.374000", "191800.372000", "191802.374000", "191804.373000", "191806.373000", "191808.374000", "191810.374000", "191812.373000", "191814.374000", "191816.373000", "191818.374000", "191820.374000", "191822.374000", "191824.374000", "191826.374000", "191828.373000", "191830.374000", "191832.374000", "191834.374000", "191836.374000", "191838.374000", "191840.394000", "191842.378000", "191844.376000", "191846.377000", "191848.374000", "191850.374000", "191852.373000", "191854.374000", "191856.374000", "191858.374000", "191900.375000", "191902.375000", "191904.375000", "191906.374000", "191908.374000", "191910.374000", "191912.374000", "191914.374000", "191916.374000", "191918.375000", "191920.375000", "191922.374000", "191924.372000", "191926.375000", "191928.374000", "191930.374000", "191932.374000", "191934.373000", "191936.374000", "191938.375000", "191940.374000", "191942.375000", "191944.374000", "191946.375000", "191948.374000", "191950.374000", "191952.374000", "191954.375000", "191956.375000", "191958.372000", "192000.373000", "192002.374000", "192004.374000", "192006.383000", "192008.374000", "192010.375000", "192012.378000", "192014.375000", "192016.374000", "192018.374000", "192020.374000", "192022.374000", "192024.374000", "192026.373000", "192028.375000", "192030.374000", "192032.374000", "192034.375000", "192036.374000", "192038.374000", "192040.374000", "192042.374000", "192044.374000", "192046.375000", "192048.374000", "192050.374000", "192052.374000", "192054.374000", "192056.374000", "192058.374000", "192100.374000", "192102.375000", "192104.375000", "192106.375000", "192108.374000", "192110.102000"],
      "InstanceNumber": [1, 2, 3, 4, 5, 6, 7, 8, 9, 10, 11, 12, 13, 14, 15, 16, 17, 18, 19, 20, 21, 22, 23, 24, 25, 26, 27, 28, 29, 30, 31, 32, 33, 34, 35, 36, 37, 38, 39, 40, 41, 42, 43, 44, 45, 46, 47, 48, 49, 50, 51, 52, 53, 54, 55, 56, 57, 58, 59, 60, 61, 62, 63, 64, 65, 66, 67, 68, 69, 70, 71, 72, 73, 74, 75, 76, 77, 78, 79, 80, 81, 82, 83, 84, 85, 86, 87, 88, 89, 90, 91, 92, 93, 94, 95, 96, 97, 98, 99, 100, 101, 102, 103, 104, 105, 106, 107, 108, 109, 110, 111, 112, 113, 114, 115, 116, 117, 118, 119, 120, 121, 122, 123, 124, 125, 126, 127, 128, 129, 130, 131, 132, 133, 134, 135, 136, 137, 138, 139, 140, 141, 142, 143, 144, 145, 146, 147, 148, 149, 150, 151, 152, 153, 154, 155, 156, 157, 158, 159, 160, 161, 162, 163, 164, 165, 166, 167, 168, 169, 170, 171, 172, 173, 174, 175, 176, 177, 178, 179, 180, 181, 182, 183, 184, 185, 186, 187, 188, 189, 190, 191, 192, 193, 194, 195, 196, 197, 198, 199, 200, 201, 202, 203, 204, 205, 206, 207, 208, 209, 210, 211, 212, 213, 214, 215, 216, 217, 218],
      "WindowCenter": [16914.0, 16899.0, 16914.0, 16923.0, 16927.0, 16913.0, 16915.0, 16924.0, 16915.0, 16909.0, 16919.0, 16908.0, 16908.0, 16915.0, 16921.0, 16903.0, 16918.0, 16906.0, 16920.0, 16890.0, 16910.0, 16907.0, 16909.0, 16894.0, 16893.0, 16915.0, 16886.0, 16904.0, 16906.0, 16903.0, 16900.0, 16896.0, 16891.0, 16905.0, 16895.0, 16895.0, 16906.0, 16910.0, 16910.0, 16922.0, 16919.0, 16919.0, 16910.0, 16910.0, 16905.0, 16894.0, 16891.0, 16909.0, 16918.0, 16924.0, 16898.0, 16851.0, 16846.0, 16878.0, 16871.0, 16878.0, 16879.0, 16878.0, 16884.0, 16882.0, 16886.0, 16876.0, 16880.0, 16870.0, 16900.0, 16904.0, 16887.0, 16875.0, 16869.0, 16873.0, 16902.0, 16915.0, 16905.0, 16894.0, 16902.0, 16897.0, 16900.0, 16884.0, 16883.0, 16868.0, 16882.0, 16875.0, 16872.0, 16885.0, 16891.0, 16881.0, 16884.0, 16870.0, 16868.0, 16881.0, 16895.0, 16905.0, 16895.0, 16904.0, 16879.0, 16880.0, 16888.0, 16916.0, 16927.0, 16903.0, 16903.0, 16917.0, 16903.0, 16908.0, 16893.0, 16893.0, 16897.0, 16894.0, 16900.0, 16900.0, 16926.0, 16914.0, 16925.0, 16887.0, 16893.0, 16888.0, 16899.0, 16908.0, 16915.0, 16932.0, 16922.0, 16904.0, 16906.0, 16889.0, 16906.0, 16899.0, 16902.0, 16899.0, 16881.0, 16894.0, 16893.0, 16920.0, 16929.0, 16913.0, 16905.0, 16903.0, 16913.0, 16904.0, 16879.0, 16907.0, 16906.0, 16910.0, 16918.0, 16920.0, 16916.0, 16917.0, 16894.0, 16903.0, 16904.0, 16908.0, 16900.0, 16911.0, 16911.0, 16910.0, 16929.0, 16910.0, 16931.0, 16911.0, 16935.0, 16924.0, 16919.0, 16923.0, 16928.0, 16912.0, 16907.0, 16913.0, 16914.0, 16922.0, 16909.0, 16897.0, 16935.0, 16919.0, 16912.0, 16906.0, 16916.0, 16925.0, 16914.0, 16909.0, 16895.0, 16913.0, 16943.0, 16937.0, 16923.0, 16913.0, 16922.0, 16926.0, 16934.0, 16914.0, 16921.0, 16926.0, 16916.0, 16909.0, 16912.0, 16920.0, 16933.0, 16920.0, 16908.0, 16893.0, 16891.0, 16901.0, 16907.0, 16908.0, 16928.0, 16932.0, 16925.0, 16914.0, 16904.0, 16918.0, 16894.0, 16909.0, 16896.0, 16896.0, 16895.0, 16901.0, 16868.0, 16910.0, 16907.0, 16922.0],
      "WindowWidth": [46595.0, 46530.0, 46606.0, 46678.0, 46644.0, 46607.0, 46610.0, 46629.0, 46648.0, 46668.0, 46663.0, 46629.0, 46617.0, 46651.0, 46693.0, 46651.0, 46559.0, 46500.0, 46461.0, 46515.0, 46567.0, 46538.0, 46464.0, 46466.0, 46479.0, 46510.0, 46551.0, 46500.0, 46475.0, 46473.0, 46497.0, 46507.0, 46527.0, 46512.0, 46506.0, 46543.0, 46552.0, 46594.0, 46608.0, 46629.0, 46652.0, 46653.0, 46618.0, 46542.0, 46501.0, 46481.0, 46491.0, 46570.0, 46564.0, 46504.0, 46445.0, 46121.0, 46173.0, 46439.0, 46382.0, 46362.0, 46402.0, 46466.0, 46496.0, 46517.0, 46470.0, 46423.0, 46427.0, 46574.0, 46572.0, 46521.0, 46496.0, 46476.0, 46472.0, 46528.0, 46563.0, 46586.0, 46563.0, 46555.0, 46640.0, 46636.0, 46586.0, 46561.0, 46508.0, 46470.0, 46428.0, 46449.0, 46461.0, 46483.0, 46513.0, 46557.0, 46508.0, 46442.0, 46430.0, 46481.0, 46505.0, 46525.0, 46532.0, 46563.0, 46542.0, 46517.0, 46538.0, 46587.0, 46634.0, 46588.0, 46536.0, 46521.0, 46565.0, 46580.0, 46529.0, 46502.0, 46544.0, 46529.0, 46444.0, 46483.0, 46595.0, 46677.0, 46631.0, 46548.0, 46449.0, 46447.0, 46495.0, 46544.0, 46665.0, 46689.0, 46577.0, 46510.0, 46487.0, 46526.0, 46592.0, 46585.0, 46548.0, 46507.0, 46506.0, 46506.0, 46584.0, 46669.0, 46687.0, 46622.0, 46562.0, 46497.0, 46494.0, 46526.0, 46545.0, 46565.0, 46526.0, 46493.0, 46551.0, 46605.0, 46560.0, 46495.0, 46503.0, 46524.0, 46488.0, 46502.0, 46523.0, 46519.0, 46532.0, 46583.0, 46597.0, 46596.0, 46588.0, 46624.0, 46653.0, 46617.0, 46626.0, 46553.0, 46530.0, 46518.0, 46500.0, 46504.0, 46544.0, 46526.0, 46502.0, 46519.0, 46509.0, 46511.0, 46493.0, 46500.0, 46493.0, 46502.0, 46494.0, 46476.0, 46516.0, 46543.0, 46556.0, 46552.0, 46567.0, 46596.0, 46567.0, 46569.0, 46549.0, 46571.0, 46591.0, 46568.0, 46585.0, 46568.0, 46571.0, 46589.0, 46561.0, 46551.0, 46540.0, 46464.0, 46460.0, 46496.0, 46567.0, 46592.0, 46569.0, 46559.0, 46541.0, 46507.0, 46462.0, 46485.0, 46478.0, 46451.0, 46469.0, 46481.0, 46480.0, 46498.0, 46535.0, 46477.0, 46489.0, 46554.0]
    },
    "slices": {}
  }
}