{
  "AcquisitionMatrixPE": 116,
  "AcquisitionNumber": 1,
  "AcquisitionTime": "19:30:38.815000",
  "BandwidthPerPixelPhaseEncode": 18.539,
  "BaseResolution": 116,
  "BodyPartExamined": "HEAD",
  "ConsistencyInfo": "N4_VD13D_LATEST_20130810",
  "ConversionSoftware": "dcm2niix",
  "ConversionSoftwareVersion": "v1.0.20190410  (JP2:OpenJPEG) (JP-LS:CharLS) GCC5.5.0",
  "DerivedVendorReportedEchoSpacing": 0.000930006,
  "DeviceSerialNumber": "66014",
  "DwellTime": 3e-06,
  "EchoTime": 0.03,
  "EchoTrainLength": 50,
  "EffectiveEchoSpacing": 0.000465003,
  "FlipAngle": 81,
  "ImageComments": "Unaliased_MB3_PE4",
  "ImageOrientationPatientDICOM": [0.999021, -0.0210055, -0.0389221, 0.0156939, 0.991117, -0.132066],
  "ImageType": [
    "ORIGINAL",
    "PRIMARY",
    "M",
    "MB",
    "ND",
    "MOSAIC"
],
  "ImagingFrequency": 123.261,
  "InPlanePhaseEncodingDirectionDICOM": "COL",
  "InstitutionAddress": "Yiheyuan_Road_5_Beijing_Haidian_CN_100871",
  "InstitutionName": "Peking_University",
  "InstitutionalDepartmentName": "Department",
  "MRAcquisitionType": "2D",
  "MagneticFieldStrength": 3,
  "Manufacturer": "Siemens",
  "ManufacturersModelName": "Prisma",
  "Modality": "MR",
  "MultibandAccelerationFactor": 3,
  "ParallelReductionFactorInPlane": 2,
  "PartialFourier": 0.875,
  "PatientPosition": "HFS",
  "PercentPhaseFOV": 100,
  "PhaseEncodingDirection": "j-",
  "PhaseEncodingSteps": 101,
  "PhaseResolution": 1,
  "PixelBandwidth": 1435,
  "ProcedureStepDescription": "Research_Projects_64CH",
  "ProtocolName": "mbep2d_bold_MB3_learn4",
  "PulseSequenceDetails": "%CustomerSeq%_cmrr_mbep2d_bold",
  "ReceiveCoilActiveElements": "HC1-7",
  "ReceiveCoilName": "HeadNeck_64",
  "ReconMatrixPE": 116,
  "RefLinesPE": 44,
  "RepetitionTime": 2,
  "SAR": 0.0513064,
  "ScanOptions": "PFP_FS",
  "ScanningSequence": "EP",
  "SequenceName": "epfid2d1_116",
  "SequenceVariant": "SK_SS",
  "SeriesDescription": "mbep2d_bold_MB3_learn4",
  "SeriesNumber": 9,
  "ShimSetting": [-3456, -2140, -1950, 317, -62, -119, 94, 31],
  "SliceThickness": 1.9,
  "SliceTiming": [0, 0.9075, 1.815, 0.7425, 1.65, 0.5775, 1.485, 0.4125, 1.32, 0.2475, 1.155, 0.0825, 0.99, 1.8975, 0.825, 1.7325, 0.66, 1.5675, 0.495, 1.4025, 0.33, 1.2375, 0.165, 1.0725, 0, 0.9075, 1.815, 0.7425, 1.65, 0.5775, 1.485, 0.4125, 1.32, 0.2475, 1.155, 0.0825, 0.99, 1.8975, 0.825, 1.7325, 0.66, 1.5675, 0.495, 1.4025, 0.33, 1.2375, 0.165, 1.0725, 0, 0.9075, 1.815, 0.7425, 1.65, 0.5775, 1.485, 0.4125, 1.32, 0.2475, 1.155, 0.0825, 0.99, 1.8975, 0.825, 1.7325, 0.66, 1.5675, 0.495, 1.4025, 0.33, 1.2375, 0.165, 1.0725],
  "SoftwareVersions": "syngo_MR_D13D",
  "SpacingBetweenSlices": 1.9,
  "StationName": "AWP66014",
  "TaskName": "updating",
  "TotalReadoutTime": 0.0534753,
  "TxRefAmp": 220.065,
  "WipMemBlock": "e549bb52-30fe-4eeb-8d02-183114bbace7||Sequence: vd13d/master r/0735857; Nov 19 2014 09:21:40 by eja",
  "dcmmeta_affine": [
    [-1.8946958780288696, 0.02976435050368309, -0.07856585085391998, 110.48521423339844],
    [0.039837926626205444, 1.8797041177749634, -0.2495189905166626, -99.24951934814453],
    [-0.07381778210401535, 0.25046974420547485, 1.8819053173065186, -77.58528900146484],
    [0.0, 0.0, 0.0, 1.0]
],
  "dcmmeta_reorient_transform": [
    [0.0, -1.0, 0.0, 115.0],
    [1.0, 0.0, 0.0, 0.0],
    [0.0, 0.0, 1.0, 0.0],
    [0.0, 0.0, 0.0, 1.0]
],
  "dcmmeta_shape": [116, 116, 72, 218],
  "dcmmeta_slice_dim": 2,
  "dcmmeta_version": 0.6,
  "global": {
    "const": {
      "AcquisitionMatrix": [116, 0, 0, 116],
      "AngioFlag": "N",
      "BitsAllocated": 16,
      "BitsStored": 16,
      "BodyPartExamined": "HEAD",
      "Columns": 1044,
      "EchoNumbers": 1,
      "EchoTime": 30.0,
      "EchoTrainLength": 50,
      "FlipAngle": 81.0,
      "HighBit": 15,
      "ImageOrientationPatient": [0.9990214416891, -0.02100545166, -0.0389221022812, 0.01569393034264, 0.99111669785828, -0.132065861512],
      "ImagePositionPatient": [-1006.8576475308, -970.61434705296, 101.68814159002],
      "ImageType": [
        "ORIGINAL",
        "PRIMARY",
        "M",
        "MB",
        "ND",
        "MOSAIC"
],
      "ImagedNucleus": "1H",
      "ImagingFrequency": 123.260625,
      "InPlanePhaseEncodingDirection": "COL",
      "LargestImagePixelValue": 65535,
      "MRAcquisitionType": "2D",
      "MagneticFieldStrength": 3.0,
      "Manufacturer": "SIEMENS",
      "ManufacturerModelName": "Prisma",
      "Modality": "MR",
      "NumberOfAverages": 1.0,
      "NumberOfPhaseEncodingSteps": 101,
      "PercentPhaseFieldOfView": 100.0,
      "PercentSampling": 100.0,
      "PerformedProcedureStepStartTime": "184820.750000",
      "PhotometricInterpretation": "MONOCHROME2",
      "PixelBandwidth": 1435.0,
      "PixelRepresentation": 0,
      "PixelSpacing": [1.8965517282486, 1.8965517282486],
      "ProtocolName": "mbep2d_bold_MB3_learn4",
      "RepetitionTime": 2000.0,
      "Rows": 1044,
      "SAR": 0.05130639942978,
      "SamplesPerPixel": 1,
      "ScanOptions": [
        "PFP",
        "FS"
],
      "ScanningSequence": "EP",
      "SequenceName": "epfid2d1_116",
      "SequenceVariant": [
        "SK",
        "SS"
],
      "SeriesDescription": "mbep2d_bold_MB3_learn4",
      "SeriesNumber": 9,
      "SeriesTime": "193054.385000",
      "SliceLocation": -68.380994368833,
      "SliceThickness": 1.8999999761581,
      "SmallestImagePixelValue": 0,
      "SoftwareVersions": "syngo MR D13D",
      "SpacingBetweenSlices": 1.9000000215692,
      "SpecificCharacterSet": "ISO_IR 100",
      "StudyID": "1",
      "StudyTime": "184820.673000",
      "TimeOfLastCalibration": ["123723.000000", "123723.000000"],
      "TransmitCoilName": "Body",
      "VariableFlipAngleFlag": "N",
      "WindowCenterWidthExplanation": "Algo1",
      "dBdt": 0.0},
    "slices": {}
  },
  "time": {
    "samples": {
      "AcquisitionNumber": [1, 2, 3, 4, 5, 6, 7, 8, 9, 10, 11, 12, 13, 14, 15, 16, 17, 18, 19, 20, 21, 22, 23, 24, 25, 26, 27, 28, 29, 30, 31, 32, 33, 34, 35, 36, 37, 38, 39, 40, 41, 42, 43, 44, 45, 46, 47, 48, 49, 50, 51, 52, 53, 54, 55, 56, 57, 58, 59, 60, 61, 62, 63, 64, 65, 66, 67, 68, 69, 70, 71, 72, 73, 74, 75, 76, 77, 78, 79, 80, 81, 82, 83, 84, 85, 86, 87, 88, 89, 90, 91, 92, 93, 94, 95, 96, 97, 98, 99, 100, 101, 102, 103, 104, 105, 106, 107, 108, 109, 110, 111, 112, 113, 114, 115, 116, 117, 118, 119, 120, 121, 122, 123, 124, 125, 126, 127, 128, 129, 130, 131, 132, 133, 134, 135, 136, 137, 138, 139, 140, 141, 142, 143, 144, 145, 146, 147, 148, 149, 150, 151, 152, 153, 154, 155, 156, 157, 158, 159, 160, 161, 162, 163, 164, 165, 166, 167, 168, 169, 170, 171, 172, 173, 174, 175, 176, 177, 178, 179, 180, 181, 182, 183, 184, 185, 186, 187, 188, 189, 190, 191, 192, 193, 194, 195, 196, 197, 198, 199, 200, 201, 202, 203, 204, 205, 206, 207, 208, 209, 210, 211, 212, 213, 214, 215, 216, 217, 218],
      "AcquisitionTime": ["193038.815000", "193040.815000", "193042.815000", "193044.815000", "193046.815000", "193048.815000", "193050.815000", "193052.815000", "193054.815000", "193056.815000", "193058.815000", "193100.815000", "193102.815000", "193104.815000", "193106.815000", "193108.815000", "193110.815000", "193112.815000", "193114.815000", "193116.815000", "193118.815000", "193120.815000", "193122.815000", "193124.815000", "193126.815000", "193128.815000", "193130.815000", "193132.815000", "193134.815000", "193136.815000", "193138.815000", "193140.815000", "193142.815000", "193144.815000", "193146.815000", "193148.815000", "193150.815000", "193152.815000", "193154.815000", "193156.815000", "193158.815000", "193200.815000", "193202.815000", "193204.815000", "193206.815000", "193208.815000", "193210.815000", "193212.815000", "193214.815000", "193216.815000", "193218.815000", "193220.815000", "193222.815000", "193224.815000", "193226.815000", "193228.815000", "193230.815000", "193232.815000", "193234.815000", "193236.815000", "193238.815000", "193240.815000", "193242.815000", "193244.815000", "193246.815000", "193248.815000", "193250.815000", "193252.817500", "193254.817500", "193256.817500", "193258.817500", "193300.817500", "193302.817500", "193304.817500", "193306.817500", "193308.817500", "193310.817500", "193312.817500", "193314.817500", "193316.817500", "193318.817500", "193320.817500", "193322.817500", "193324.817500", "193326.817500", "193328.817500", "193330.817500", "193332.817500", "193334.817500", "193336.817500", "193338.817500", "193340.817500", "193342.817500", "193344.817500", "193346.817500", "193348.817500", "193350.817500", "193352.817500", "193354.817500", "193356.817500", "193358.817500", "193400.817500", "193402.817500", "193404.817500", "193406.817500", "193408.817500", "193410.817500", "193412.817500", "193414.817500", "193416.817500", "193418.817500", "193420.817500", "193422.817500", "193424.817500", "193426.817500", "193428.817500", "193430.817500", "193432.817500", "193434.817500", "193436.817500", "193438.817500", "193440.817500", "193442.817500", "193444.817500", "193446.817500", "193448.817500", "193450.817500", "193452.817500", "193454.817500", "193456.817500", "193458.817500", "193500.817500", "193502.817500", "193504.817500", "193506.817500", "193508.817500", "193510.817500", "193512.817500", "193514.817500", "193516.817500", "193518.817500", "193520.817500", "193522.817500", "193524.817500", "193526.817500", "193528.817500", "193530.817500", "193532.817500", "193534.817500", "193536.817500", "193538.817500", "193540.817500", "193542.817500", "193544.817500", "193546.817500", "193548.817500", "193550.817500", "193552.817500", "193554.817500", "193556.817500", "193558.817500", "193600.817500", "193602.817500", "193604.817500", "193606.817500", "193608.817500", "193610.817500", "193612.817500", "193614.817500", "193616.817500", "193618.817500", "193620.817500", "193622.817500", "193624.817500", "193626.817500", "193628.817500", "193630.817500", "193632.817500", "193634.817500", "193636.817500", "193638.817500", "193640.817500", "193642.817500", "193644.817500", "193646.817500", "193648.817500", "193650.817500", "193652.817500", "193654.817500", "193656.817500", "193658.817500", "193700.817500", "193702.817500", "193704.817500", "193706.817500", "193708.817500", "193710.817500", "193712.817500", "193714.817500", "193716.817500", "193718.817500", "193720.817500", "193722.817500", "193724.817500", "193726.817500", "193728.817500", "193730.817500", "193732.817500", "193734.817500", "193736.817500", "193738.817500", "193740.817500", "193742.817500", "193744.817500", "193746.817500", "193748.817500", "193750.817500", "193752.817500"],
      "ContentTime": ["193054.390000", "193055.382000", "193055.386000", "193056.383000", "193057.385000", "193057.390000", "193058.385000", "193059.385000", "193100.384000", "193101.384000", "193102.384000", "193103.886000", "193105.884000", "193107.884000", "193109.884000", "193111.883000", "193113.884000", "193115.885000", "193117.885000", "193119.885000", "193121.885000", "193123.884000", "193125.884000", "193127.884000", "193129.884000", "193131.885000", "193133.886000", "193135.885000", "193137.885000", "193139.884000", "193141.883000", "193143.883000", "193145.884000", "193147.884000", "193149.885000", "193151.885000", "193153.885000", "193155.885000", "193157.884000", "193159.884000", "193201.884000", "193203.884000", "193205.884000", "193207.885000", "193209.885000", "193211.883000", "193213.885000", "193215.882000", "193217.884000", "193219.884000", "193221.883000", "193223.884000", "193225.886000", "193227.885000", "193229.886000", "193231.886000", "193233.884000", "193235.884000", "193237.884000", "193239.884000", "193241.885000", "193243.885000", "193245.885000", "193247.885000", "193249.884000", "193251.884000", "193253.883000", "193255.884000", "193257.882000", "193259.883000", "193301.885000", "193303.885000", "193305.884000", "193307.885000", "193309.883000", "193311.883000", "193313.884000", "193315.884000", "193317.885000", "193319.884000", "193321.885000", "193323.885000", "193325.883000", "193327.882000", "193329.884000", "193331.883000", "193333.883000", "193335.885000", "193337.885000", "193339.886000", "193341.885000", "193343.884000", "193345.884000", "193347.884000", "193349.884000", "193351.885000", "193353.885000", "193355.885000", "193357.885000", "193359.886000", "193401.884000", "193403.885000", "193405.884000", "193407.884000", "193409.886000", "193411.885000", "193413.885000", "193415.886000", "193417.884000", "193419.884000", "193421.894000", "193423.884000", "193425.884000", "193427.885000", "193429.885000", "193431.885000", "193433.885000", "193435.884000", "193437.884000", "193439.884000", "193441.884000", "193443.884000", "193445.885000", "193447.885000", "193449.885000", "193451.886000", "193453.884000", "193455.885000", "193457.884000", "193459.884000", "193501.885000", "193503.885000", "193505.885000", "193507.885000", "193509.885000", "193511.882000", "193513.884000", "193515.884000", "193517.884000", "193519.885000", "193521.886000", "193523.885000", "193525.885000", "193527.885000", "193529.884000", "193531.884000", "193533.884000", "193535.884000", "193537.885000", "193539.885000", "193541.885000", "193543.886000", "193545.884000", "193547.884000", "193549.884000", "193551.884000", "193553.884000", "193555.885000", "193557.886000", "193559.885000", "193601.884000", "193603.885000", "193605.884000", "193607.884000", "193609.884000", "193611.885000", "193613.886000", "193615.885000", "193617.885000", "193619.885000", "193621.885000", "193623.884000", "193625.884000", "193627.884000", "193629.883000", "193631.885000", "193633.885000", "193635.885000", "193637.885000", "193639.884000", "193641.884000", "193643.884000", "193645.883000", "193647.885000", "193649.885000", "193651.885000", "193653.886000", "193655.884000", "193657.885000", "193659.884000", "193701.883000", "193703.884000", "193705.884000", "193707.885000", "193709.885000", "193711.885000", "193713.884000", "193715.884000", "193717.885000", "193719.883000", "193721.885000", "193723.885000", "193725.886000", "193727.886000", "193729.885000", "193731.884000", "193733.884000", "193735.884000", "193737.884000", "193739.885000", "193741.886000", "193743.885000", "193745.885000", "193747.885000", "193749.884000", "193751.884000", "193753.884000", "193755.571000"],
      "InstanceCreationTime": ["193054.390000", "193055.382000", "193055.386000", "193056.383000", "193057.385000", "193057.390000", "193058.385000", "193059.385000", "193100.384000", "193101.384000", "193102.384000", "193103.886000", "193105.884000", "193107.884000", "193109.884000", "193111.883000", "193113.884000", "193115.885000", "193117.885000", "193119.885000", "193121.885000", "193123.884000", "193125.884000", "193127.884000", "193129.884000", "193131.885000", "193133.886000", "193135.885000", "193137.885000", "193139.884000", "193141.883000", "193143.883000", "193145.884000", "193147.884000", "193149.885000", "193151.885000", "193153.885000", "193155.885000", "193157.884000", "193159.884000", "193201.884000", "193203.884000", "193205.884000", "193207.885000", "193209.885000", "193211.883000", "193213.885000", "193215.882000", "193217.884000", "193219.884000", "193221.883000", "193223.884000", "193225.886000", "193227.885000", "193229.886000", "193231.886000", "193233.884000", "193235.884000", "193237.884000", "193239.884000", "193241.885000", "193243.885000", "193245.885000", "193247.885000", "193249.884000", "193251.884000", "193253.883000", "193255.884000", "193257.882000", "193259.883000", "193301.885000", "193303.885000", "193305.884000", "193307.885000", "193309.883000", "193311.883000", "193313.884000", "193315.884000", "193317.885000", "193319.884000", "193321.885000", "193323.885000", "193325.883000", "193327.882000", "193329.884000", "193331.883000", "193333.883000", "193335.885000", "193337.885000", "193339.886000", "193341.885000", "193343.884000", "193345.884000", "193347.884000", "193349.884000", "193351.885000", "193353.885000", "193355.885000", "193357.885000", "193359.886000", "193401.884000", "193403.885000", "193405.884000", "193407.884000", "193409.886000", "193411.885000", "193413.885000", "193415.886000", "193417.884000", "193419.884000", "193421.894000", "193423.884000", "193425.884000", "193427.885000", "193429.885000", "193431.885000", "193433.885000", "193435.884000", "193437.884000", "193439.884000", "193441.884000", "193443.884000", "193445.885000", "193447.885000", "193449.885000", "193451.886000", "193453.884000", "193455.885000", "193457.884000", "193459.884000", "193501.885000", "193503.885000", "193505.885000", "193507.885000", "193509.885000", "193511.882000", "193513.884000", "193515.884000", "193517.884000", "193519.885000", "193521.886000", "193523.885000", "193525.885000", "193527.885000", "193529.884000", "193531.884000", "193533.884000", "193535.884000", "193537.885000", "193539.885000", "193541.885000", "193543.886000", "193545.884000", "193547.884000", "193549.884000", "193551.884000", "193553.884000", "193555.885000", "193557.886000", "193559.885000", "193601.884000", "193603.885000", "193605.884000", "193607.884000", "193609.884000", "193611.885000", "193613.886000", "193615.885000", "193617.885000", "193619.885000", "193621.885000", "193623.884000", "193625.884000", "193627.884000", "193629.883000", "193631.885000", "193633.885000", "193635.885000", "193637.885000", "193639.884000", "193641.884000", "193643.884000", "193645.883000", "193647.885000", "193649.885000", "193651.885000", "193653.886000", "193655.884000", "193657.885000", "193659.884000", "193701.883000", "193703.884000", "193705.884000", "193707.885000", "193709.885000", "193711.885000", "193713.884000", "193715.884000", "193717.885000", "193719.883000", "193721.885000", "193723.885000", "193725.886000", "193727.886000", "193729.885000", "193731.884000", "193733.884000", "193735.884000", "193737.884000", "193739.885000", "193741.886000", "193743.885000", "193745.885000", "193747.885000", "193749.884000", "193751.884000", "193753.884000", "193755.571000"],
      "InstanceNumber": [1, 2, 3, 4, 5, 6, 7, 8, 9, 10, 11, 12, 13, 14, 15, 16, 17, 18, 19, 20, 21, 22, 23, 24, 25, 26, 27, 28, 29, 30, 31, 32, 33, 34, 35, 36, 37, 38, 39, 40, 41, 42, 43, 44, 45, 46, 47, 48, 49, 50, 51, 52, 53, 54, 55, 56, 57, 58, 59, 60, 61, 62, 63, 64, 65, 66, 67, 68, 69, 70, 71, 72, 73, 74, 75, 76, 77, 78, 79, 80, 81, 82, 83, 84, 85, 86, 87, 88, 89, 90, 91, 92, 93, 94, 95, 96, 97, 98, 99, 100, 101, 102, 103, 104, 105, 106, 107, 108, 109, 110, 111, 112, 113, 114, 115, 116, 117, 118, 119, 120, 121, 122, 123, 124, 125, 126, 127, 128, 129, 130, 131, 132, 133, 134, 135, 136, 137, 138, 139, 140, 141, 142, 143, 144, 145, 146, 147, 148, 149, 150, 151, 152, 153, 154, 155, 156, 157, 158, 159, 160, 161, 162, 163, 164, 165, 166, 167, 168, 169, 170, 171, 172, 173, 174, 175, 176, 177, 178, 179, 180, 181, 182, 183, 184, 185, 186, 187, 188, 189, 190, 191, 192, 193, 194, 195, 196, 197, 198, 199, 200, 201, 202, 203, 204, 205, 206, 207, 208, 209, 210, 211, 212, 213, 214, 215, 216, 217, 218],
      "WindowCenter": [16885.0, 16872.0, 16862.0, 16865.0, 16839.0, 16852.0, 16849.0, 16830.0, 16832.0, 16841.0, 16833.0, 16844.0, 16841.0, 16837.0, 16824.0, 16829.0, 16817.0, 16833.0, 16829.0, 16826.0, 16817.0, 16830.0, 16834.0, 16849.0, 16867.0, 16865.0, 16856.0, 16845.0, 16851.0, 16857.0, 16852.0, 16857.0, 16833.0, 16835.0, 16834.0, 16837.0, 16838.0, 16842.0, 16825.0, 16815.0, 16806.0, 16812.0, 16820.0, 16810.0, 16810.0, 16828.0, 16828.0, 16821.0, 16823.0, 16829.0, 16833.0, 16870.0, 16855.0, 16829.0, 16826.0, 16842.0, 16844.0, 16842.0, 16834.0, 16844.0, 16832.0, 16855.0, 16859.0, 16828.0, 16828.0, 16815.0, 16836.0, 16840.0, 16836.0, 16847.0, 16864.0, 16848.0, 16861.0, 16875.0, 16853.0, 16856.0, 16879.0, 16874.0, 16863.0, 16863.0, 16857.0, 16876.0, 16858.0, 16845.0, 16849.0, 16871.0, 16898.0, 16902.0, 16891.0, 16883.0, 16890.0, 16875.0, 16878.0, 16883.0, 16884.0, 16892.0, 16885.0, 16907.0, 16884.0, 16887.0, 16886.0, 16890.0, 16854.0, 16876.0, 16901.0, 16867.0, 16908.0, 16894.0, 16866.0, 16879.0, 16878.0, 16903.0, 16897.0, 16922.0, 16933.0, 16901.0, 16917.0, 16925.0, 16900.0, 16912.0, 16919.0, 16922.0, 16921.0, 16917.0, 16910.0, 16910.0, 16859.0, 16878.0, 16898.0, 16884.0, 16882.0, 16882.0, 16870.0, 16862.0, 16877.0, 16894.0, 16902.0, 16887.0, 16877.0, 16895.0, 16880.0, 16891.0, 16877.0, 16876.0, 16867.0, 16874.0, 16879.0, 16880.0, 16880.0, 16872.0, 16879.0, 16879.0, 16873.0, 16872.0, 16880.0, 16895.0, 16891.0, 16893.0, 16882.0, 16876.0, 16874.0, 16877.0, 16882.0, 16874.0, 16889.0, 16884.0, 16872.0, 16886.0, 16912.0, 16896.0, 16911.0, 16908.0, 16905.0, 16905.0, 16895.0, 16893.0, 16921.0, 16859.0, 16869.0, 16869.0, 16868.0, 16860.0, 16871.0, 16880.0, 16884.0, 16890.0, 16890.0, 16892.0, 16894.0, 16905.0, 16911.0, 16883.0, 16885.0, 16881.0, 16894.0, 16909.0, 16891.0, 16888.0, 16893.0, 16910.0, 16891.0, 16890.0, 16915.0, 16898.0, 16902.0, 16880.0, 16885.0, 16893.0, 16861.0, 16945.0, 16907.0, 16906.0, 16907.0, 16920.0, 16914.0, 16918.0, 16921.0, 16922.0],
      "WindowWidth": [47043.0, 46852.0, 46756.0, 46678.0, 46582.0, 46603.0, 46564.0, 46536.0, 46564.0, 46584.0, 46656.0, 46663.0, 46647.0, 46594.0, 46623.0, 46614.0, 46656.0, 46720.0, 46743.0, 46713.0, 46733.0, 46746.0, 46817.0, 46867.0, 46853.0, 46824.0, 46739.0, 46743.0, 46761.0, 46778.0, 46787.0, 46714.0, 46710.0, 46672.0, 46685.0, 46701.0, 46714.0, 46688.0, 46582.0, 46564.0, 46623.0, 46628.0, 46556.0, 46496.0, 46537.0, 46590.0, 46668.0, 46612.0, 46587.0, 46619.0, 46725.0, 46740.0, 46625.0, 46617.0, 46628.0, 46640.0, 46706.0, 46664.0, 46620.0, 46681.0, 46685.0, 46740.0, 46692.0, 46626.0, 46524.0, 46554.0, 46545.0, 46547.0, 46545.0, 46607.0, 46734.0, 46695.0, 46642.0, 46614.0, 46702.0, 46690.0, 46670.0, 46731.0, 46721.0, 46668.0, 46691.0, 46731.0, 46769.0, 46784.0, 46788.0, 46806.0, 46853.0, 46881.0, 46858.0, 46799.0, 46767.0, 46807.0, 46783.0, 46788.0, 46814.0, 46795.0, 46751.0, 46780.0, 46829.0, 46816.0, 46803.0, 46781.0, 46648.0, 46755.0, 46739.0, 46699.0, 46693.0, 46605.0, 46414.0, 46401.0, 46480.0, 46589.0, 46702.0, 46770.0, 46736.0, 46558.0, 46881.0, 46822.0, 46854.0, 46864.0, 46908.0, 46973.0, 47011.0, 47034.0, 46989.0, 46925.0, 46750.0, 46919.0, 47045.0, 47021.0, 46941.0, 46890.0, 46844.0, 46839.0, 46824.0, 46864.0, 46866.0, 46803.0, 46744.0, 46762.0, 46852.0, 46876.0, 46878.0, 46795.0, 46750.0, 46820.0, 46862.0, 46800.0, 46733.0, 46754.0, 46759.0, 46746.0, 46779.0, 46752.0, 46746.0, 46735.0, 46781.0, 46808.0, 46800.0, 46743.0, 46703.0, 46681.0, 46737.0, 46795.0, 46833.0, 46840.0, 46807.0, 46855.0, 46825.0, 46815.0, 46977.0, 46961.0, 46908.0, 46830.0, 46810.0, 46824.0, 46845.0, 46586.0, 46813.0, 46737.0, 46710.0, 46703.0, 46713.0, 46785.0, 46774.0, 46803.0, 46792.0, 46782.0, 46770.0, 46793.0, 46785.0, 46802.0, 46776.0, 46760.0, 46772.0, 46809.0, 46809.0, 46819.0, 46822.0, 46822.0, 46822.0, 46857.0, 46851.0, 46877.0, 46881.0, 46864.0, 46802.0, 46809.0, 46490.0, 47010.0, 46831.0, 46845.0, 46872.0, 46869.0, 46864.0, 46917.0, 46921.0, 46898.0]
    },
    "slices": {}
  }
}