{
  "AcquisitionMatrixPE": 116,
  "AcquisitionNumber": 1,
  "AcquisitionTime": "18:36:50.377500",
  "BandwidthPerPixelPhaseEncode": 18.539,
  "BaseResolution": 116,
  "BodyPartExamined": "HEAD",
  "ConsistencyInfo": "N4_VD13D_LATEST_20130810",
  "ConversionSoftware": "dcm2niix",
  "ConversionSoftwareVersion": "v1.0.20190410  (JP2:OpenJPEG) (JP-LS:CharLS) GCC5.5.0",
  "DerivedVendorReportedEchoSpacing": 0.000930006,
  "DeviceSerialNumber": "66014",
  "DwellTime": 3e-06,
  "EchoTime": 0.03,
  "EchoTrainLength": 50,
  "EffectiveEchoSpacing": 0.000465003,
  "FlipAngle": 81,
  "ImageComments": "Unaliased_MB3_PE4",
  "ImageOrientationPatientDICOM": [0.998407, -0.0478927, -0.0298326, 0.0470837, 0.998519, -0.0272552],
  "ImageType": [
    "ORIGINAL",
    "PRIMARY",
    "M",
    "MB",
    "ND",
    "MOSAIC"
],
  "ImagingFrequency": 123.261,
  "InPlanePhaseEncodingDirectionDICOM": "COL",
  "InstitutionAddress": "Yiheyuan_Road_5_Beijing_Haidian_CN_100871",
  "InstitutionName": "Peking_University",
  "InstitutionalDepartmentName": "Department",
  "MRAcquisitionType": "2D",
  "MagneticFieldStrength": 3,
  "Manufacturer": "Siemens",
  "ManufacturersModelName": "Prisma",
  "Modality": "MR",
  "MultibandAccelerationFactor": 3,
  "ParallelReductionFactorInPlane": 2,
  "PartialFourier": 0.875,
  "PatientPosition": "HFS",
  "PercentPhaseFOV": 100,
  "PhaseEncodingDirection": "j-",
  "PhaseEncodingSteps": 101,
  "PhaseResolution": 1,
  "PixelBandwidth": 1435,
  "ProcedureStepDescription": "Research_Projects_64CH",
  "ProtocolName": "mbep2d_bold_MB3_learn6",
  "PulseSequenceDetails": "%CustomerSeq%_cmrr_mbep2d_bold",
  "ReceiveCoilActiveElements": "HC1-7",
  "ReceiveCoilName": "HeadNeck_64",
  "ReconMatrixPE": 116,
  "RefLinesPE": 44,
  "RepetitionTime": 2,
  "SAR": 0.0482178,
  "ScanOptions": "PFP_FS",
  "ScanningSequence": "EP",
  "SequenceName": "epfid2d1_116",
  "SequenceVariant": "SK_SS",
  "SeriesDescription": "mbep2d_bold_MB3_learn6",
  "SeriesNumber": 11,
  "ShimSetting": [-3481, -2111, -1977, 371, -78, 14, -1, -5],
  "SliceThickness": 1.9,
  "SliceTiming": [0, 0.9075, 1.815, 0.7425, 1.65, 0.5775, 1.485, 0.4125, 1.32, 0.2475, 1.155, 0.0825, 0.99, 1.8975, 0.825, 1.7325, 0.66, 1.5675, 0.495, 1.4025, 0.33, 1.2375, 0.165, 1.0725, 0, 0.9075, 1.815, 0.7425, 1.65, 0.5775, 1.485, 0.4125, 1.32, 0.2475, 1.155, 0.0825, 0.99, 1.8975, 0.825, 1.7325, 0.66, 1.5675, 0.495, 1.4025, 0.33, 1.2375, 0.165, 1.0725, 0, 0.9075, 1.815, 0.7425, 1.65, 0.5775, 1.485, 0.4125, 1.32, 0.2475, 1.155, 0.0825, 0.99, 1.8975, 0.825, 1.7325, 0.66, 1.5675, 0.495, 1.4025, 0.33, 1.2375, 0.165, 1.0725],
  "SoftwareVersions": "syngo_MR_D13D",
  "SpacingBetweenSlices": 1.9,
  "StationName": "AWP66014",
  "TaskName": "updating",
  "TotalReadoutTime": 0.0534753,
  "TxRefAmp": 220.016,
  "WipMemBlock": "fe7ce578-592c-4c7b-88b8-5fb2ef9c3c88||Sequence: vd13d/master r/0735857; Nov 19 2014 09:21:40 by eja",
  "dcmmeta_affine": [
    [-1.893530249595642, 0.08929663896560669, -0.059078119695186615, 102.70774841308594],
    [0.0908309668302536, 1.8937430381774902, -0.049033522605895996, -102.5568618774414],
    [-0.05657907575368881, 0.05169083550572395, 1.8984482288360596, -72.29691314697266],
    [0.0, 0.0, 0.0, 1.0]
],
  "dcmmeta_reorient_transform": [
    [0.0, -1.0, 0.0, 115.0],
    [1.0, 0.0, 0.0, 0.0],
    [0.0, 0.0, 1.0, 0.0],
    [0.0, 0.0, 0.0, 1.0]
],
  "dcmmeta_shape": [116, 116, 72, 218],
  "dcmmeta_slice_dim": 2,
  "dcmmeta_version": 0.6,
  "global": {
    "const": {
      "AcquisitionMatrix": [116, 0, 0, 116],
      "AngioFlag": "N",
      "BitsAllocated": 16,
      "BitsStored": 16,
      "BodyPartExamined": "HEAD",
      "Columns": 1044,
      "EchoNumbers": 1,
      "EchoTime": 30.0,
      "EchoTrainLength": 50,
      "FlipAngle": 81.0,
      "HighBit": 15,
      "ImageOrientationPatient": [0.99840688389836, -0.047892691674, -0.0298326041201, 0.04708368189976, 0.9985190447654, -0.0272551672086],
      "ImagePositionPatient": [-1033.0085637278, -951.77477566709, -16.115232116637],
      "ImageType": [
        "ORIGINAL",
        "PRIMARY",
        "M",
        "MB",
        "ND",
        "MOSAIC"
],
      "ImagedNucleus": "1H",
      "ImagingFrequency": 123.260615,
      "InPlanePhaseEncodingDirection": "COL",
      "LargestImagePixelValue": 65535,
      "MRAcquisitionType": "2D",
      "MagneticFieldStrength": 3.0,
      "Manufacturer": "SIEMENS",
      "ManufacturerModelName": "Prisma",
      "Modality": "MR",
      "NumberOfAverages": 1.0,
      "NumberOfPhaseEncodingSteps": 101,
      "PercentPhaseFieldOfView": 100.0,
      "PercentSampling": 100.0,
      "PerformedProcedureStepStartTime": "173833.858000",
      "PhotometricInterpretation": "MONOCHROME2",
      "PixelBandwidth": 1435.0,
      "PixelRepresentation": 0,
      "PixelSpacing": [1.8965517282486, 1.8965517282486],
      "ProtocolName": "mbep2d_bold_MB3_learn6",
      "RepetitionTime": 2000.0,
      "Rows": 1044,
      "SAR": 0.04821779074518,
      "SamplesPerPixel": 1,
      "ScanOptions": [
        "PFP",
        "FS"
],
      "ScanningSequence": "EP",
      "SequenceName": "epfid2d1_116",
      "SequenceVariant": [
        "SK",
        "SS"
],
      "SeriesDescription": "mbep2d_bold_MB3_learn6",
      "SeriesNumber": 11,
      "SeriesTime": "183705.541000",
      "SliceLocation": -72.784740323536,
      "SliceThickness": 1.8999999761581,
      "SmallestImagePixelValue": 0,
      "SoftwareVersions": "syngo MR D13D",
      "SpacingBetweenSlices": 1.900000012611,
      "SpecificCharacterSet": "ISO_IR 100",
      "StudyID": "1",
      "StudyTime": "173833.786000",
      "TimeOfLastCalibration": ["123723.000000", "123723.000000"],
      "TransmitCoilName": "Body",
      "VariableFlipAngleFlag": "N",
      "WindowCenterWidthExplanation": "Algo1",
      "dBdt": 0.0},
    "slices": {}
  },
  "time": {
    "samples": {
      "AcquisitionNumber": [1, 2, 3, 4, 5, 6, 7, 8, 9, 10, 11, 12, 13, 14, 15, 16, 17, 18, 19, 20, 21, 22, 23, 24, 25, 26, 27, 28, 29, 30, 31, 32, 33, 34, 35, 36, 37, 38, 39, 40, 41, 42, 43, 44, 45, 46, 47, 48, 49, 50, 51, 52, 53, 54, 55, 56, 57, 58, 59, 60, 61, 62, 63, 64, 65, 66, 67, 68, 69, 70, 71, 72, 73, 74, 75, 76, 77, 78, 79, 80, 81, 82, 83, 84, 85, 86, 87, 88, 89, 90, 91, 92, 93, 94, 95, 96, 97, 98, 99, 100, 101, 102, 103, 104, 105, 106, 107, 108, 109, 110, 111, 112, 113, 114, 115, 116, 117, 118, 119, 120, 121, 122, 123, 124, 125, 126, 127, 128, 129, 130, 131, 132, 133, 134, 135, 136, 137, 138, 139, 140, 141, 142, 143, 144, 145, 146, 147, 148, 149, 150, 151, 152, 153, 154, 155, 156, 157, 158, 159, 160, 161, 162, 163, 164, 165, 166, 167, 168, 169, 170, 171, 172, 173, 174, 175, 176, 177, 178, 179, 180, 181, 182, 183, 184, 185, 186, 187, 188, 189, 190, 191, 192, 193, 194, 195, 196, 197, 198, 199, 200, 201, 202, 203, 204, 205, 206, 207, 208, 209, 210, 211, 212, 213, 214, 215, 216, 217, 218],
      "AcquisitionTime": ["183650.377500", "183652.377500", "183654.377500", "183656.377500", "183658.377500", "183700.377500", "183702.377500", "183704.377500", "183706.377500", "183708.377500", "183710.377500", "183712.377500", "183714.377500", "183716.377500", "183718.377500", "183720.377500", "183722.377500", "183724.377500", "183726.377500", "183728.377500", "183730.377500", "183732.377500", "183734.377500", "183736.377500", "183738.380000", "183740.380000", "183742.380000", "183744.380000", "183746.380000", "183748.380000", "183750.380000", "183752.380000", "183754.380000", "183756.380000", "183758.380000", "183800.380000", "183802.380000", "183804.380000", "183806.380000", "183808.380000", "183810.380000", "183812.380000", "183814.380000", "183816.380000", "183818.380000", "183820.380000", "183822.380000", "183824.380000", "183826.380000", "183828.380000", "183830.380000", "183832.380000", "183834.380000", "183836.380000", "183838.380000", "183840.380000", "183842.380000", "183844.380000", "183846.380000", "183848.380000", "183850.380000", "183852.380000", "183854.380000", "183856.380000", "183858.380000", "183900.380000", "183902.380000", "183904.380000", "183906.380000", "183908.380000", "183910.380000", "183912.380000", "183914.380000", "183916.380000", "183918.380000", "183920.380000", "183922.380000", "183924.380000", "183926.380000", "183928.380000", "183930.380000", "183932.380000", "183934.380000", "183936.380000", "183938.380000", "183940.380000", "183942.380000", "183944.380000", "183946.380000", "183948.380000", "183950.380000", "183952.380000", "183954.380000", "183956.380000", "183958.380000", "184000.380000", "184002.380000", "184004.380000", "184006.380000", "184008.380000", "184010.380000", "184012.380000", "184014.380000", "184016.380000", "184018.380000", "184020.380000", "184022.380000", "184024.380000", "184026.380000", "184028.380000", "184030.380000", "184032.380000", "184034.380000", "184036.380000", "184038.380000", "184040.380000", "184042.380000", "184044.380000", "184046.380000", "184048.380000", "184050.380000", "184052.380000", "184054.380000", "184056.380000", "184058.380000", "184100.380000", "184102.380000", "184104.380000", "184106.380000", "184108.380000", "184110.380000", "184112.380000", "184114.380000", "184116.380000", "184118.380000", "184120.380000", "184122.380000", "184124.380000", "184126.380000", "184128.380000", "184130.380000", "184132.380000", "184134.380000", "184136.380000", "184138.380000", "184140.380000", "184142.380000", "184144.380000", "184146.380000", "184148.380000", "184150.380000", "184152.380000", "184154.380000", "184156.380000", "184158.380000", "184200.380000", "184202.380000", "184204.380000", "184206.380000", "184208.380000", "184210.380000", "184212.380000", "184214.380000", "184216.380000", "184218.380000", "184220.380000", "184222.380000", "184224.380000", "184226.380000", "184228.380000", "184230.380000", "184232.380000", "184234.380000", "184236.380000", "184238.380000", "184240.380000", "184242.380000", "184244.380000", "184246.380000", "184248.380000", "184250.380000", "184252.380000", "184254.380000", "184256.380000", "184258.380000", "184300.380000", "184302.380000", "184304.380000", "184306.380000", "184308.380000", "184310.380000", "184312.380000", "184314.380000", "184316.380000", "184318.380000", "184320.380000", "184322.380000", "184324.380000", "184326.380000", "184328.380000", "184330.380000", "184332.380000", "184334.380000", "184336.380000", "184338.380000", "184340.380000", "184342.380000", "184344.380000", "184346.380000", "184348.380000", "184350.380000", "184352.380000", "184354.380000", "184356.380000", "184358.380000", "184400.380000", "184402.380000", "184404.380000"],
      "ContentTime": ["183705.547000", "183706.539000", "183707.539000", "183707.543000", "183708.539000", "183709.539000", "183710.540000", "183710.545000", "183711.539000", "183712.540000", "183713.538000", "183715.039000", "183717.039000", "183719.038000", "183721.040000", "183723.038000", "183725.040000", "183727.040000", "183729.040000", "183731.039000", "183733.039000", "183735.039000", "183737.039000", "183739.040000", "183741.040000", "183743.040000", "183745.040000", "183747.041000", "183749.037000", "183751.038000", "183753.039000", "183755.040000", "183757.040000", "183759.040000", "183801.040000", "183803.040000", "183805.040000", "183807.037000", "183809.040000", "183811.040000", "183813.040000", "183815.040000", "183817.040000", "183819.040000", "183821.040000", "183823.039000", "183825.039000", "183827.039000", "183829.039000", "183831.040000", "183833.040000", "183835.040000", "183837.040000", "183839.040000", "183841.038000", "183843.038000", "183845.039000", "183847.039000", "183849.040000", "183851.040000", "183853.040000", "183855.040000", "183857.040000", "183859.039000", "183901.039000", "183903.039000", "183905.040000", "183907.041000", "183909.040000", "183911.040000", "183913.040000", "183915.040000", "183917.039000", "183919.038000", "183921.039000", "183923.040000", "183925.040000", "183927.039000", "183929.040000", "183931.040000", "183933.040000", "183935.039000", "183937.039000", "183939.039000", "183941.040000", "183943.041000", "183945.040000", "183947.041000", "183949.040000", "183951.039000", "183953.039000", "183955.039000", "183957.040000", "183959.040000", "184001.040000", "184003.040000", "184005.040000", "184007.040000", "184009.039000", "184011.054000", "184013.038000", "184015.040000", "184017.040000", "184019.040000", "184021.040000", "184023.040000", "184025.040000", "184027.039000", "184029.039000", "184031.039000", "184033.039000", "184035.039000", "184037.040000", "184039.040000", "184041.040000", "184043.039000", "184045.039000", "184047.039000", "184049.039000", "184051.040000", "184053.041000", "184055.040000", "184057.040000", "184059.040000", "184101.038000", "184103.039000", "184105.039000", "184107.038000", "184109.040000", "184111.040000", "184113.040000", "184115.040000", "184117.040000", "184119.038000", "184121.039000", "184123.039000", "184125.040000", "184127.040000", "184129.040000", "184131.040000", "184133.040000", "184135.039000", "184137.039000", "184139.039000", "184141.039000", "184143.040000", "184145.038000", "184147.040000", "184149.040000", "184151.040000", "184153.039000", "184155.039000", "184157.039000", "184159.039000", "184201.040000", "184203.040000", "184205.040000", "184207.040000", "184209.040000", "184211.039000", "184213.039000", "184215.039000", "184217.039000", "184219.041000", "184221.039000", "184223.040000", "184225.040000", "184227.040000", "184229.039000", "184231.039000", "184233.039000", "184235.040000", "184237.040000", "184239.039000", "184241.040000", "184243.040000", "184245.040000", "184247.039000", "184249.038000", "184251.038000", "184253.039000", "184255.040000", "184257.040000", "184259.041000", "184301.040000", "184303.039000", "184305.040000", "184307.039000", "184309.039000", "184311.039000", "184313.039000", "184315.040000", "184317.039000", "184319.040000", "184321.038000", "184323.038000", "184325.038000", "184327.039000", "184329.039000", "184331.040000", "184333.039000", "184335.040000", "184337.040000", "184339.038000", "184341.039000", "184343.038000", "184345.039000", "184347.039000", "184349.040000", "184351.039000", "184353.039000", "184355.039000", "184357.038000", "184359.037000", "184401.038000", "184403.039000", "184405.040000", "184406.748000"],
      "InstanceCreationTime": ["183705.547000", "183706.539000", "183707.539000", "183707.543000", "183708.539000", "183709.539000", "183710.540000", "183710.545000", "183711.539000", "183712.540000", "183713.538000", "183715.039000", "183717.039000", "183719.038000", "183721.040000", "183723.038000", "183725.040000", "183727.040000", "183729.040000", "183731.039000", "183733.039000", "183735.039000", "183737.039000", "183739.040000", "183741.040000", "183743.040000", "183745.040000", "183747.041000", "183749.037000", "183751.038000", "183753.039000", "183755.040000", "183757.040000", "183759.040000", "183801.040000", "183803.040000", "183805.040000", "183807.037000", "183809.040000", "183811.040000", "183813.040000", "183815.040000", "183817.040000", "183819.040000", "183821.040000", "183823.039000", "183825.039000", "183827.039000", "183829.039000", "183831.040000", "183833.040000", "183835.040000", "183837.040000", "183839.040000", "183841.038000", "183843.038000", "183845.039000", "183847.039000", "183849.040000", "183851.040000", "183853.040000", "183855.040000", "183857.040000", "183859.039000", "183901.039000", "183903.039000", "183905.040000", "183907.041000", "183909.040000", "183911.040000", "183913.040000", "183915.040000", "183917.039000", "183919.038000", "183921.039000", "183923.040000", "183925.040000", "183927.039000", "183929.040000", "183931.040000", "183933.040000", "183935.039000", "183937.039000", "183939.039000", "183941.040000", "183943.041000", "183945.040000", "183947.041000", "183949.040000", "183951.039000", "183953.039000", "183955.039000", "183957.040000", "183959.040000", "184001.040000", "184003.040000", "184005.040000", "184007.040000", "184009.039000", "184011.054000", "184013.038000", "184015.040000", "184017.040000", "184019.040000", "184021.040000", "184023.040000", "184025.040000", "184027.039000", "184029.039000", "184031.039000", "184033.039000", "184035.039000", "184037.040000", "184039.040000", "184041.040000", "184043.039000", "184045.039000", "184047.039000", "184049.039000", "184051.040000", "184053.041000", "184055.040000", "184057.040000", "184059.040000", "184101.038000", "184103.039000", "184105.039000", "184107.038000", "184109.040000", "184111.040000", "184113.040000", "184115.040000", "184117.040000", "184119.038000", "184121.039000", "184123.039000", "184125.040000", "184127.040000", "184129.040000", "184131.040000", "184133.040000", "184135.039000", "184137.039000", "184139.039000", "184141.039000", "184143.040000", "184145.038000", "184147.040000", "184149.040000", "184151.040000", "184153.039000", "184155.039000", "184157.039000", "184159.039000", "184201.040000", "184203.040000", "184205.040000", "184207.040000", "184209.040000", "184211.039000", "184213.039000", "184215.039000", "184217.039000", "184219.041000", "184221.039000", "184223.040000", "184225.040000", "184227.040000", "184229.039000", "184231.039000", "184233.039000", "184235.040000", "184237.040000", "184239.039000", "184241.040000", "184243.040000", "184245.040000", "184247.039000", "184249.038000", "184251.038000", "184253.039000", "184255.040000", "184257.040000", "184259.041000", "184301.040000", "184303.039000", "184305.040000", "184307.039000", "184309.039000", "184311.039000", "184313.039000", "184315.040000", "184317.039000", "184319.040000", "184321.038000", "184323.038000", "184325.038000", "184327.039000", "184329.039000", "184331.040000", "184333.039000", "184335.040000", "184337.040000", "184339.038000", "184341.039000", "184343.038000", "184345.039000", "184347.039000", "184349.040000", "184351.039000", "184353.039000", "184355.039000", "184357.038000", "184359.037000", "184401.038000", "184403.039000", "184405.040000", "184406.748000"],
      "InstanceNumber": [1, 2, 3, 4, 5, 6, 7, 8, 9, 10, 11, 12, 13, 14, 15, 16, 17, 18, 19, 20, 21, 22, 23, 24, 25, 26, 27, 28, 29, 30, 31, 32, 33, 34, 35, 36, 37, 38, 39, 40, 41, 42, 43, 44, 45, 46, 47, 48, 49, 50, 51, 52, 53, 54, 55, 56, 57, 58, 59, 60, 61, 62, 63, 64, 65, 66, 67, 68, 69, 70, 71, 72, 73, 74, 75, 76, 77, 78, 79, 80, 81, 82, 83, 84, 85, 86, 87, 88, 89, 90, 91, 92, 93, 94, 95, 96, 97, 98, 99, 100, 101, 102, 103, 104, 105, 106, 107, 108, 109, 110, 111, 112, 113, 114, 115, 116, 117, 118, 119, 120, 121, 122, 123, 124, 125, 126, 127, 128, 129, 130, 131, 132, 133, 134, 135, 136, 137, 138, 139, 140, 141, 142, 143, 144, 145, 146, 147, 148, 149, 150, 151, 152, 153, 154, 155, 156, 157, 158, 159, 160, 161, 162, 163, 164, 165, 166, 167, 168, 169, 170, 171, 172, 173, 174, 175, 176, 177, 178, 179, 180, 181, 182, 183, 184, 185, 186, 187, 188, 189, 190, 191, 192, 193, 194, 195, 196, 197, 198, 199, 200, 201, 202, 203, 204, 205, 206, 207, 208, 209, 210, 211, 212, 213, 214, 215, 216, 217, 218],
      "WindowCenter": [16690.0, 16643.0, 16649.0, 16656.0, 16653.0, 16663.0, 16657.0, 16621.0, 16619.0, 16628.0, 16633.0, 16616.0, 16625.0, 16613.0, 16613.0, 16629.0, 16624.0, 16621.0, 16600.0, 16604.0, 16602.0, 16615.0, 16612.0, 16633.0, 16635.0, 16635.0, 16621.0, 16608.0, 16607.0, 16604.0, 16607.0, 16606.0, 16606.0, 16601.0, 16609.0, 16620.0, 16605.0, 16621.0, 16619.0, 16630.0, 16628.0, 16602.0, 16578.0, 16578.0, 16573.0, 16593.0, 16580.0, 16594.0, 16607.0, 16614.0, 16619.0, 16608.0, 16609.0, 16611.0, 16623.0, 16626.0, 16611.0, 16623.0, 16640.0, 16641.0, 16623.0, 16597.0, 16588.0, 16597.0, 16602.0, 16615.0, 16616.0, 16614.0, 16634.0, 16639.0, 16635.0, 16611.0, 16620.0, 16615.0, 16624.0, 16624.0, 16628.0, 16629.0, 16621.0, 16627.0, 16631.0, 16627.0, 16622.0, 16627.0, 16624.0, 16633.0, 16637.0, 16654.0, 16651.0, 16641.0, 16613.0, 16630.0, 16652.0, 16651.0, 16654.0, 16638.0, 16635.0, 16631.0, 16634.0, 16618.0, 16622.0, 16641.0, 16640.0, 16645.0, 16635.0, 16634.0, 16633.0, 16632.0, 16637.0, 16637.0, 16654.0, 16632.0, 16611.0, 16630.0, 16625.0, 16591.0, 16623.0, 16627.0, 16627.0, 16621.0, 16602.0, 16602.0, 16592.0, 16600.0, 16615.0, 16608.0, 16616.0, 16630.0, 16620.0, 16619.0, 16621.0, 16629.0, 16633.0, 16638.0, 16640.0, 16634.0, 16626.0, 16631.0, 16655.0, 16646.0, 16646.0, 16638.0, 16638.0, 16637.0, 16621.0, 16622.0, 16641.0, 16628.0, 16635.0, 16620.0, 16604.0, 16613.0, 16621.0, 16626.0, 16622.0, 16634.0, 16630.0, 16628.0, 16636.0, 16661.0, 16642.0, 16621.0, 16609.0, 16612.0, 16608.0, 16596.0, 16604.0, 16610.0, 16600.0, 16615.0, 16609.0, 16606.0, 16606.0, 16620.0, 16633.0, 16639.0, 16623.0, 16617.0, 16625.0, 16615.0, 16616.0, 16625.0, 16618.0, 16613.0, 16624.0, 16613.0, 16636.0, 16637.0, 16647.0, 16635.0, 16636.0, 16621.0, 16624.0, 16623.0, 16621.0, 16599.0, 16604.0, 16626.0, 16636.0, 16635.0, 16637.0, 16620.0, 16605.0, 16604.0, 16608.0, 16598.0, 16602.0, 16608.0, 16612.0, 16626.0, 16627.0, 16634.0, 16625.0, 16626.0, 16621.0, 16626.0, 16622.0, 16609.0],
      "WindowWidth": [45317.0, 45052.0, 45214.0, 45259.0, 45284.0, 45197.0, 45074.0, 45027.0, 45013.0, 45008.0, 44987.0, 45037.0, 45033.0, 45063.0, 45077.0, 45066.0, 45115.0, 45098.0, 45149.0, 45162.0, 45162.0, 45172.0, 45195.0, 45175.0, 45149.0, 45109.0, 45068.0, 45030.0, 45000.0, 44971.0, 45015.0, 44987.0, 45002.0, 45038.0, 45059.0, 45124.0, 45137.0, 45164.0, 45285.0, 45295.0, 45185.0, 45038.0, 44909.0, 44899.0, 44975.0, 44965.0, 45035.0, 45073.0, 45096.0, 45116.0, 45122.0, 45100.0, 45087.0, 45088.0, 45151.0, 45156.0, 45210.0, 45154.0, 45221.0, 45196.0, 45123.0, 45046.0, 45024.0, 45048.0, 45065.0, 45067.0, 45094.0, 45132.0, 45178.0, 45197.0, 45166.0, 45142.0, 45122.0, 45160.0, 45181.0, 45194.0, 45170.0, 45209.0, 45230.0, 45247.0, 45200.0, 45180.0, 45229.0, 45208.0, 45246.0, 45267.0, 45298.0, 45301.0, 45231.0, 45102.0, 45115.0, 45119.0, 45179.0, 45273.0, 45287.0, 45232.0, 45176.0, 45172.0, 45149.0, 45173.0, 45177.0, 45220.0, 45275.0, 45280.0, 45258.0, 45242.0, 45175.0, 45149.0, 45165.0, 45202.0, 45166.0, 45148.0, 45193.0, 45185.0, 45180.0, 45070.0, 45162.0, 45126.0, 45140.0, 45135.0, 45091.0, 44998.0, 45005.0, 45014.0, 45078.0, 45070.0, 45091.0, 45078.0, 45058.0, 45067.0, 45096.0, 45145.0, 45188.0, 45180.0, 45152.0, 45160.0, 45140.0, 45183.0, 45205.0, 45239.0, 45212.0, 45192.0, 45204.0, 45177.0, 45161.0, 45149.0, 45154.0, 45184.0, 45203.0, 45162.0, 45134.0, 45114.0, 45135.0, 45182.0, 45205.0, 45311.0, 45307.0, 45331.0, 45324.0, 45334.0, 45276.0, 45230.0, 45191.0, 45168.0, 45163.0, 45140.0, 45080.0, 45071.0, 45143.0, 45156.0, 45151.0, 45146.0, 45161.0, 45201.0, 45227.0, 45221.0, 45244.0, 45212.0, 45166.0, 45197.0, 45197.0, 45217.0, 45186.0, 45195.0, 45206.0, 45210.0, 45351.0, 45309.0, 45252.0, 45201.0, 45175.0, 45175.0, 45151.0, 45122.0, 45095.0, 45128.0, 45159.0, 45208.0, 45271.0, 45257.0, 45203.0, 45082.0, 45013.0, 44986.0, 44990.0, 45023.0, 45080.0, 45111.0, 45167.0, 45167.0, 45195.0, 45202.0, 45247.0, 45247.0, 45245.0, 45235.0, 45165.0, 45138.0]
    },
    "slices": {}
  }
}