{
  "AcquisitionMatrixPE": 116,
  "AcquisitionNumber": 1,
  "AcquisitionTime": "11:27:15.460000",
  "BandwidthPerPixelPhaseEncode": 18.539,
  "BaseResolution": 116,
  "BodyPartExamined": "HEAD",
  "ConsistencyInfo": "N4_VD13D_LATEST_20130810",
  "ConversionSoftware": "dcm2niix",
  "ConversionSoftwareVersion": "v1.0.20190410  (JP2:OpenJPEG) (JP-LS:CharLS) GCC5.5.0",
  "DerivedVendorReportedEchoSpacing": 0.000930006,
  "DeviceSerialNumber": "66014",
  "DwellTime": 3e-06,
  "EchoTime": 0.03,
  "EchoTrainLength": 50,
  "EffectiveEchoSpacing": 0.000465003,
  "FlipAngle": 81,
  "ImageComments": "Unaliased_MB3_PE4",
  "ImageOrientationPatientDICOM": [0.999994, -0.00169778, -0.00304853, 0.00174534, 0.999876, 0.0156649],
  "ImageType": [
    "ORIGINAL",
    "PRIMARY",
    "M",
    "MB",
    "ND",
    "MOSAIC"
],
  "ImagingFrequency": 123.261,
  "InPlanePhaseEncodingDirectionDICOM": "COL",
  "InstitutionAddress": "Yiheyuan_Road_5_Beijing_Haidian_CN_100871",
  "InstitutionName": "Peking_University",
  "InstitutionalDepartmentName": "Department",
  "MRAcquisitionType": "2D",
  "MagneticFieldStrength": 3,
  "Manufacturer": "Siemens",
  "ManufacturersModelName": "Prisma",
  "Modality": "MR",
  "MultibandAccelerationFactor": 3,
  "ParallelReductionFactorInPlane": 2,
  "PartialFourier": 0.875,
  "PatientPosition": "HFS",
  "PercentPhaseFOV": 100,
  "PhaseEncodingDirection": "j-",
  "PhaseEncodingSteps": 101,
  "PhaseResolution": 1,
  "PixelBandwidth": 1435,
  "ProcedureStepDescription": "Research_Projects_64CH",
  "ProtocolName": "mbep2d_bold_MB3_loca3",
  "PulseSequenceDetails": "%CustomerSeq%_cmrr_mbep2d_bold",
  "ReceiveCoilActiveElements": "HC3-7",
  "ReceiveCoilName": "HeadNeck_64",
  "ReconMatrixPE": 116,
  "RefLinesPE": 44,
  "RepetitionTime": 2,
  "SAR": 0.0601036,
  "ScanOptions": "PFP_FS",
  "ScanningSequence": "EP",
  "SequenceName": "epfid2d1_116",
  "SequenceVariant": "SK_SS",
  "SeriesDescription": "mbep2d_bold_MB3_loca3",
  "SeriesNumber": 12,
  "ShimSetting": [-3447, -2131, -1912, 422, 40, -187, 92, -33],
  "SliceThickness": 1.9,
  "SliceTiming": [0, 0.9075, 1.815, 0.7425, 1.65, 0.5775, 1.485, 0.4125, 1.32, 0.2475, 1.155, 0.0825, 0.99, 1.8975, 0.825, 1.7325, 0.66, 1.5675, 0.495, 1.4025, 0.33, 1.2375, 0.165, 1.0725, 0, 0.9075, 1.815, 0.7425, 1.65, 0.5775, 1.485, 0.4125, 1.32, 0.2475, 1.155, 0.0825, 0.99, 1.8975, 0.825, 1.7325, 0.66, 1.5675, 0.495, 1.4025, 0.33, 1.2375, 0.165, 1.0725, 0, 0.9075, 1.815, 0.7425, 1.65, 0.5775, 1.485, 0.4125, 1.32, 0.2475, 1.155, 0.0825, 0.99, 1.8975, 0.825, 1.7325, 0.66, 1.5675, 0.495, 1.4025, 0.33, 1.2375, 0.165, 1.0725],
  "SoftwareVersions": "syngo_MR_D13D",
  "SpacingBetweenSlices": 1.9,
  "StationName": "AWP66014",
  "TaskName": "localizer",
  "TotalReadoutTime": 0.0534753,
  "TxRefAmp": 214.959,
  "WipMemBlock": "7bce9e77-d4fa-463d-9fd5-729b7594038b||Sequence: vd13d/master r/0735857; Nov 19 2014 09:21:40 by eja",
  "dcmmeta_affine": [
    [-1.8965401649475098, 0.003310120664536953, -0.005740951281040907, 109.05440521240234],
    [0.003219930687919259, 1.8963161706924438, 0.029773294925689697, -101.74104309082031],
    [-0.005781690124422312, -0.0297093503177166, 1.899757981300354, -69.61904907226562],
    [0.0, 0.0, 0.0, 1.0]
],
  "dcmmeta_reorient_transform": [
    [0.0, -1.0, 0.0, 115.0],
    [1.0, 0.0, 0.0, 0.0],
    [0.0, 0.0, 1.0, 0.0],
    [0.0, 0.0, 0.0, 1.0]
],
  "dcmmeta_shape": [116, 116, 72, 164],
  "dcmmeta_slice_dim": 2,
  "dcmmeta_version": 0.6,
  "global": {
    "const": {
      "AcquisitionMatrix": [116, 0, 0, 116],
      "AngioFlag": "N",
      "BitsAllocated": 16,
      "BitsStored": 16,
      "BodyPartExamined": "HEAD",
      "Columns": 1044,
      "EchoNumbers": 1,
      "EchoTime": 30.0,
      "EchoTrainLength": 50,
      "FlipAngle": 81.0,
      "HighBit": 15,
      "ImageOrientationPatient": [0.99999391198999, -0.001697781688, -0.0030485275624, 0.00174533637709, 0.99987577416386, 0.01566493029521],
      "ImagePositionPatient": [-990.96560747262, -994.73194600853, -84.138058251614],
      "ImageType": [
        "ORIGINAL",
        "PRIMARY",
        "M",
        "MB",
        "ND",
        "MOSAIC"
],
      "ImagedNucleus": "1H",
      "ImagingFrequency": 123.260567,
      "InPlanePhaseEncodingDirection": "COL",
      "LargestImagePixelValue": 65535,
      "MRAcquisitionType": "2D",
      "MagneticFieldStrength": 3.0,
      "Manufacturer": "SIEMENS",
      "ManufacturerModelName": "Prisma",
      "Modality": "MR",
      "NumberOfAverages": 1.0,
      "NumberOfPhaseEncodingSteps": 101,
      "PercentPhaseFieldOfView": 100.0,
      "PercentSampling": 100.0,
      "PerformedProcedureStepStartTime": "101256.761000",
      "PhotometricInterpretation": "MONOCHROME2",
      "PixelBandwidth": 1435.0,
      "PixelRepresentation": 0,
      "PixelSpacing": [1.8965517282486, 1.8965517282486],
      "ProtocolName": "mbep2d_bold_MB3_loca3",
      "RepetitionTime": 2000.0,
      "Rows": 1044,
      "SAR": 0.06010362426879,
      "SamplesPerPixel": 1,
      "ScanOptions": [
        "PFP",
        "FS"
],
      "ScanningSequence": "EP",
      "SequenceName": "epfid2d1_116",
      "SequenceVariant": [
        "SK",
        "SS"
],
      "SeriesDescription": "mbep2d_bold_MB3_loca3",
      "SeriesNumber": 12,
      "SeriesTime": "112726.069000",
      "SliceLocation": -71.533994198918,
      "SliceThickness": 1.8999999761581,
      "SmallestImagePixelValue": 0,
      "SoftwareVersions": "syngo MR D13D",
      "SpacingBetweenSlices": 1.8999999947821,
      "SpecificCharacterSet": "ISO_IR 100",
      "StudyID": "1",
      "StudyTime": "101256.678000",
      "TimeOfLastCalibration": ["123723.000000", "123723.000000"],
      "TransmitCoilName": "Body",
      "VariableFlipAngleFlag": "N",
      "WindowCenterWidthExplanation": "Algo1",
      "dBdt": 0.0},
    "slices": {}
  },
  "time": {
    "samples": {
      "AcquisitionNumber": [1, 2, 3, 4, 5, 6, 7, 8, 9, 10, 11, 12, 13, 14, 15, 16, 17, 18, 19, 20, 21, 22, 23, 24, 25, 26, 27, 28, 29, 30, 31, 32, 33, 34, 35, 36, 37, 38, 39, 40, 41, 42, 43, 44, 45, 46, 47, 48, 49, 50, 51, 52, 53, 54, 55, 56, 57, 58, 59, 60, 61, 62, 63, 64, 65, 66, 67, 68, 69, 70, 71, 72, 73, 74, 75, 76, 77, 78, 79, 80, 81, 82, 83, 84, 85, 86, 87, 88, 89, 90, 91, 92, 93, 94, 95, 96, 97, 98, 99, 100, 101, 102, 103, 104, 105, 106, 107, 108, 109, 110, 111, 112, 113, 114, 115, 116, 117, 118, 119, 120, 121, 122, 123, 124, 125, 126, 127, 128, 129, 130, 131, 132, 133, 134, 135, 136, 137, 138, 139, 140, 141, 142, 143, 144, 145, 146, 147, 148, 149, 150, 151, 152, 153, 154, 155, 156, 157, 158, 159, 160, 161, 162, 163, 164],
      "AcquisitionTime": ["112715.460000", "112717.460000", "112719.460000", "112721.460000", "112723.460000", "112725.460000", "112727.460000", "112729.460000", "112731.460000", "112733.460000", "112735.460000", "112737.460000", "112739.460000", "112741.460000", "112743.460000", "112745.460000", "112747.460000", "112749.460000", "112751.460000", "112753.460000", "112755.460000", "112757.460000", "112759.460000", "112801.460000", "112803.460000", "112805.460000", "112807.460000", "112809.460000", "112811.460000", "112813.460000", "112815.460000", "112817.460000", "112819.460000", "112821.460000", "112823.460000", "112825.460000", "112827.460000", "112829.460000", "112831.460000", "112833.460000", "112835.460000", "112837.460000", "112839.460000", "112841.460000", "112843.460000", "112845.460000", "112847.460000", "112849.460000", "112851.460000", "112853.460000", "112855.460000", "112857.460000", "112859.460000", "112901.460000", "112903.460000", "112905.460000", "112907.460000", "112909.460000", "112911.460000", "112913.460000", "112915.460000", "112917.460000", "112919.460000", "112921.460000", "112923.460000", "112925.460000", "112927.460000", "112929.460000", "112931.460000", "112933.460000", "112935.460000", "112937.460000", "112939.460000", "112941.460000", "112943.460000", "112945.460000", "112947.460000", "112949.460000", "112951.460000", "112953.460000", "112955.460000", "112957.460000", "112959.460000", "113001.460000", "113003.460000", "113005.460000", "113007.460000", "113009.460000", "113011.460000", "113013.460000", "113015.460000", "113017.460000", "113019.460000", "113021.460000", "113023.460000", "113025.460000", "113027.460000", "113029.460000", "113031.460000", "113033.460000", "113035.460000", "113037.460000", "113039.460000", "113041.460000", "113043.460000", "113045.460000", "113047.460000", "113049.460000", "113051.460000", "113053.460000", "113055.460000", "113057.460000", "113059.460000", "113101.460000", "113103.460000", "113105.460000", "113107.460000", "113109.460000", "113111.460000", "113113.460000", "113115.460000", "113117.460000", "113119.460000", "113121.460000", "113123.460000", "113125.460000", "113127.460000", "113129.460000", "113131.460000", "113133.460000", "113135.460000", "113137.460000", "113139.460000", "113141.460000", "113143.460000", "113145.460000", "113147.460000", "113149.460000", "113151.460000", "113153.460000", "113155.460000", "113157.460000", "113159.460000", "113201.460000", "113203.460000", "113205.460000", "113207.460000", "113209.460000", "113211.460000", "113213.460000", "113215.460000", "113217.460000", "113219.460000", "113221.460000", "113223.460000", "113225.460000", "113227.460000", "113229.460000", "113231.460000", "113233.460000", "113235.460000", "113237.460000", "113239.460000", "113241.460000"],
      "ContentTime": ["112726.075000", "112727.052000", "112728.054000", "112728.059000", "112729.053000", "112729.058000", "112730.053000", "112732.054000", "112734.052000", "112736.055000", "112738.054000", "112740.054000", "112742.054000", "112744.052000", "112746.054000", "112748.054000", "112750.054000", "112752.054000", "112754.054000", "112756.055000", "112758.054000", "112800.053000", "112802.053000", "112804.054000", "112806.054000", "112808.054000", "112810.054000", "112812.054000", "112814.055000", "112816.054000", "112818.053000", "112820.054000", "112822.054000", "112824.054000", "112826.054000", "112828.054000", "112830.054000", "112832.054000", "112834.054000", "112836.053000", "112838.053000", "112840.054000", "112842.055000", "112844.054000", "112846.054000", "112848.055000", "112850.054000", "112852.055000", "112854.053000", "112856.054000", "112858.053000", "112900.054000", "112902.052000", "112904.054000", "112906.054000", "112908.054000", "112910.054000", "112912.053000", "112914.054000", "112916.054000", "112918.054000", "112920.054000", "112922.054000", "112924.054000", "112926.054000", "112928.053000", "112930.054000", "112932.053000", "112934.054000", "112936.054000", "112938.054000", "112940.054000", "112942.055000", "112944.054000", "112946.053000", "112948.054000", "112950.054000", "112952.053000", "112954.054000", "112956.054000", "112958.054000", "113000.054000", "113002.054000", "113004.054000", "113006.055000", "113008.054000", "113010.053000", "113012.054000", "113014.053000", "113016.054000", "113018.054000", "113020.053000", "113022.054000", "113024.055000", "113026.054000", "113028.054000", "113030.053000", "113032.054000", "113034.054000", "113036.054000", "113038.053000", "113040.054000", "113042.054000", "113044.054000", "113046.054000", "113048.054000", "113050.054000", "113052.053000", "113054.054000", "113056.053000", "113058.054000", "113100.054000", "113102.054000", "113104.054000", "113106.055000", "113108.054000", "113110.054000", "113112.054000", "113114.052000", "113116.054000", "113118.054000", "113120.052000", "113122.054000", "113124.053000", "113126.053000", "113128.053000", "113130.052000", "113132.053000", "113134.053000", "113136.054000", "113138.053000", "113140.053000", "113142.053000", "113144.053000", "113146.052000", "113148.051000", "113150.054000", "113152.055000", "113154.054000", "113156.055000", "113158.053000", "113200.053000", "113202.053000", "113204.053000", "113206.052000", "113208.053000", "113210.054000", "113212.054000", "113214.054000", "113216.054000", "113218.053000", "113220.053000", "113222.053000", "113224.052000", "113226.054000", "113228.054000", "113230.054000", "113232.054000", "113234.055000", "113236.053000", "113238.054000", "113240.052000", "113242.053000", "113243.877000"],
      "InstanceCreationTime": ["112726.075000", "112727.052000", "112728.054000", "112728.059000", "112729.053000", "112729.058000", "112730.053000", "112732.054000", "112734.052000", "112736.055000", "112738.054000", "112740.054000", "112742.054000", "112744.052000", "112746.054000", "112748.054000", "112750.054000", "112752.054000", "112754.054000", "112756.055000", "112758.054000", "112800.053000", "112802.053000", "112804.054000", "112806.054000", "112808.054000", "112810.054000", "112812.054000", "112814.055000", "112816.054000", "112818.053000", "112820.054000", "112822.054000", "112824.054000", "112826.054000", "112828.054000", "112830.054000", "112832.054000", "112834.054000", "112836.053000", "112838.053000", "112840.054000", "112842.055000", "112844.054000", "112846.054000", "112848.055000", "112850.054000", "112852.055000", "112854.053000", "112856.054000", "112858.053000", "112900.054000", "112902.052000", "112904.054000", "112906.054000", "112908.054000", "112910.054000", "112912.053000", "112914.054000", "112916.054000", "112918.054000", "112920.054000", "112922.054000", "112924.054000", "112926.054000", "112928.053000", "112930.054000", "112932.053000", "112934.054000", "112936.054000", "112938.054000", "112940.054000", "112942.055000", "112944.054000", "112946.053000", "112948.054000", "112950.054000", "112952.053000", "112954.054000", "112956.054000", "112958.054000", "113000.054000", "113002.054000", "113004.054000", "113006.055000", "113008.054000", "113010.053000", "113012.054000", "113014.053000", "113016.054000", "113018.054000", "113020.053000", "113022.054000", "113024.055000", "113026.054000", "113028.054000", "113030.053000", "113032.054000", "113034.054000", "113036.054000", "113038.053000", "113040.054000", "113042.054000", "113044.054000", "113046.054000", "113048.054000", "113050.054000", "113052.053000", "113054.054000", "113056.053000", "113058.054000", "113100.054000", "113102.054000", "113104.054000", "113106.055000", "113108.054000", "113110.054000", "113112.054000", "113114.052000", "113116.054000", "113118.054000", "113120.052000", "113122.054000", "113124.053000", "113126.053000", "113128.053000", "113130.052000", "113132.053000", "113134.053000", "113136.054000", "113138.053000", "113140.053000", "113142.053000", "113144.053000", "113146.052000", "113148.051000", "113150.054000", "113152.055000", "113154.054000", "113156.055000", "113158.053000", "113200.053000", "113202.053000", "113204.053000", "113206.052000", "113208.053000", "113210.054000", "113212.054000", "113214.054000", "113216.054000", "113218.053000", "113220.053000", "113222.053000", "113224.052000", "113226.054000", "113228.054000", "113230.054000", "113232.054000", "113234.055000", "113236.053000", "113238.054000", "113240.052000", "113242.053000", "113243.877000"],
      "InstanceNumber": [1, 2, 3, 4, 5, 6, 7, 8, 9, 10, 11, 12, 13, 14, 15, 16, 17, 18, 19, 20, 21, 22, 23, 24, 25, 26, 27, 28, 29, 30, 31, 32, 33, 34, 35, 36, 37, 38, 39, 40, 41, 42, 43, 44, 45, 46, 47, 48, 49, 50, 51, 52, 53, 54, 55, 56, 57, 58, 59, 60, 61, 62, 63, 64, 65, 66, 67, 68, 69, 70, 71, 72, 73, 74, 75, 76, 77, 78, 79, 80, 81, 82, 83, 84, 85, 86, 87, 88, 89, 90, 91, 92, 93, 94, 95, 96, 97, 98, 99, 100, 101, 102, 103, 104, 105, 106, 107, 108, 109, 110, 111, 112, 113, 114, 115, 116, 117, 118, 119, 120, 121, 122, 123, 124, 125, 126, 127, 128, 129, 130, 131, 132, 133, 134, 135, 136, 137, 138, 139, 140, 141, 142, 143, 144, 145, 146, 147, 148, 149, 150, 151, 152, 153, 154, 155, 156, 157, 158, 159, 160, 161, 162, 163, 164],
      "WindowCenter": [14988.0, 14978.0, 15090.0, 15125.0, 15122.0, 15118.0, 15112.0, 15097.0, 15093.0, 15101.0, 15111.0, 15095.0, 15075.0, 15085.0, 15076.0, 15084.0, 15078.0, 15069.0, 15083.0, 15075.0, 15083.0, 15075.0, 15070.0, 15075.0, 15077.0, 15077.0, 15077.0, 15081.0, 15080.0, 15080.0, 15088.0, 15080.0, 15063.0, 15057.0, 15052.0, 15060.0, 15060.0, 15054.0, 15054.0, 15064.0, 15075.0, 15087.0, 15089.0, 15079.0, 15080.0, 15071.0, 15063.0, 15060.0, 15072.0, 15071.0, 15082.0, 15066.0, 15062.0, 15069.0, 15073.0, 15061.0, 15054.0, 15061.0, 15062.0, 15057.0, 15070.0, 15075.0, 15081.0, 15066.0, 15085.0, 15083.0, 15072.0, 15078.0, 15074.0, 15066.0, 15058.0, 15045.0, 15047.0, 15050.0, 15054.0, 15059.0, 15052.0, 15080.0, 15084.0, 15078.0, 15083.0, 15078.0, 15072.0, 15064.0, 15061.0, 15062.0, 15048.0, 15051.0, 15049.0, 15046.0, 15065.0, 15057.0, 15065.0, 15062.0, 15055.0, 15062.0, 15075.0, 15088.0, 15066.0, 15059.0, 15049.0, 15038.0, 15038.0, 15043.0, 15053.0, 15066.0, 15065.0, 15045.0, 15049.0, 15043.0, 15041.0, 15048.0, 15051.0, 15053.0, 15059.0, 15059.0, 15068.0, 15077.0, 15068.0, 15058.0, 15060.0, 15053.0, 15064.0, 15063.0, 15051.0, 15041.0, 15032.0, 15042.0, 15050.0, 15059.0, 15056.0, 15049.0, 15036.0, 15038.0, 15050.0, 15045.0, 15051.0, 15064.0, 15058.0, 15054.0, 15050.0, 15036.0, 15026.0, 15034.0, 15039.0, 15033.0, 15032.0, 15031.0, 15043.0, 15039.0, 15039.0, 15031.0, 15046.0, 15057.0, 15057.0, 15061.0, 15057.0, 15053.0, 15046.0, 15049.0, 15039.0, 15026.0, 15018.0, 15019.0],
      "WindowWidth": [40694.0, 40383.0, 40498.0, 40976.0, 40917.0, 40844.0, 40823.0, 40869.0, 40847.0, 40853.0, 40852.0, 40761.0, 40733.0, 40720.0, 40721.0, 40770.0, 40734.0, 40692.0, 40726.0, 40771.0, 40768.0, 40745.0, 40700.0, 40750.0, 40779.0, 40806.0, 40764.0, 40774.0, 40797.0, 40852.0, 40832.0, 40796.0, 40700.0, 40664.0, 40685.0, 40722.0, 40692.0, 40686.0, 40678.0, 40692.0, 40764.0, 40819.0, 40822.0, 40721.0, 40693.0, 40625.0, 40617.0, 40669.0, 40701.0, 40699.0, 40699.0, 40737.0, 40740.0, 40748.0, 40753.0, 40739.0, 40658.0, 40658.0, 40591.0, 40615.0, 40661.0, 40748.0, 40757.0, 40795.0, 40804.0, 40762.0, 40720.0, 40683.0, 40677.0, 40651.0, 40652.0, 40618.0, 40623.0, 40611.0, 40618.0, 40613.0, 40661.0, 40714.0, 40735.0, 40741.0, 40707.0, 40687.0, 40677.0, 40638.0, 40661.0, 40646.0, 40652.0, 40627.0, 40640.0, 40677.0, 40729.0, 40746.0, 40730.0, 40673.0, 40652.0, 40718.0, 40793.0, 40822.0, 40777.0, 40651.0, 40598.0, 40556.0, 40571.0, 40676.0, 40744.0, 40762.0, 40705.0, 40678.0, 40654.0, 40620.0, 40634.0, 40684.0, 40704.0, 40649.0, 40658.0, 40716.0, 40770.0, 40767.0, 40727.0, 40671.0, 40661.0, 40723.0, 40792.0, 40760.0, 40657.0, 40585.0, 40633.0, 40747.0, 40786.0, 40712.0, 40640.0, 40602.0, 40672.0, 40689.0, 40702.0, 40711.0, 40775.0, 40876.0, 40868.0, 40732.0, 40642.0, 40608.0, 40667.0, 40704.0, 40668.0, 40617.0, 40605.0, 40647.0, 40676.0, 40631.0, 40630.0, 40634.0, 40698.0, 40753.0, 40754.0, 40787.0, 40823.0, 40801.0, 40805.0, 40776.0, 40690.0, 40573.0, 40553.0, 40614.0]
    },
    "slices": {}
  }
}