{
  "AcquisitionMatrixPE": 116,
  "AcquisitionNumber": 1,
  "AcquisitionTime": "11:14:34.055000",
  "BandwidthPerPixelPhaseEncode": 18.539,
  "BaseResolution": 116,
  "BodyPartExamined": "HEAD",
  "ConsistencyInfo": "N4_VD13D_LATEST_20130810",
  "ConversionSoftware": "dcm2niix",
  "ConversionSoftwareVersion": "v1.0.20190410  (JP2:OpenJPEG) (JP-LS:CharLS) GCC5.5.0",
  "DerivedVendorReportedEchoSpacing": 0.000930006,
  "DeviceSerialNumber": "66014",
  "DwellTime": 3e-06,
  "EchoTime": 0.03,
  "EchoTrainLength": 50,
  "EffectiveEchoSpacing": 0.000465003,
  "FlipAngle": 81,
  "ImageComments": "Unaliased_MB3_PE4",
  "ImageOrientationPatientDICOM": [0.999994, -0.00169778, -0.00304853, 0.00174534, 0.999876, 0.0156649],
  "ImageType": [
    "ORIGINAL",
    "PRIMARY",
    "M",
    "MB",
    "ND",
    "MOSAIC"
],
  "ImagingFrequency": 123.261,
  "InPlanePhaseEncodingDirectionDICOM": "COL",
  "InstitutionAddress": "Yiheyuan_Road_5_Beijing_Haidian_CN_100871",
  "InstitutionName": "Peking_University",
  "InstitutionalDepartmentName": "Department",
  "MRAcquisitionType": "2D",
  "MagneticFieldStrength": 3,
  "Manufacturer": "Siemens",
  "ManufacturersModelName": "Prisma",
  "Modality": "MR",
  "MultibandAccelerationFactor": 3,
  "ParallelReductionFactorInPlane": 2,
  "PartialFourier": 0.875,
  "PatientPosition": "HFS",
  "PercentPhaseFOV": 100,
  "PhaseEncodingDirection": "j-",
  "PhaseEncodingSteps": 101,
  "PhaseResolution": 1,
  "PixelBandwidth": 1435,
  "ProcedureStepDescription": "Research_Projects_64CH",
  "ProtocolName": "mbep2d_bold_MB3_loca2",
  "PulseSequenceDetails": "%CustomerSeq%_cmrr_mbep2d_bold",
  "ReceiveCoilActiveElements": "HC3-7",
  "ReceiveCoilName": "HeadNeck_64",
  "ReconMatrixPE": 116,
  "RefLinesPE": 44,
  "RepetitionTime": 2,
  "SAR": 0.0601036,
  "ScanOptions": "PFP_FS",
  "ScanningSequence": "EP",
  "SequenceName": "epfid2d1_116",
  "SequenceVariant": "SK_SS",
  "SeriesDescription": "mbep2d_bold_MB3_loca2",
  "SeriesNumber": 10,
  "ShimSetting": [-3447, -2131, -1912, 422, 40, -187, 92, -33],
  "SliceThickness": 1.9,
  "SliceTiming": [0, 0.9075, 1.815, 0.7425, 1.65, 0.5775, 1.485, 0.4125, 1.32, 0.2475, 1.155, 0.0825, 0.99, 1.8975, 0.825, 1.7325, 0.66, 1.5675, 0.495, 1.4025, 0.33, 1.2375, 0.165, 1.0725, 0, 0.9075, 1.815, 0.7425, 1.65, 0.5775, 1.485, 0.4125, 1.32, 0.2475, 1.155, 0.0825, 0.99, 1.8975, 0.825, 1.7325, 0.66, 1.5675, 0.495, 1.4025, 0.33, 1.2375, 0.165, 1.0725, 0, 0.9075, 1.815, 0.7425, 1.65, 0.5775, 1.485, 0.4125, 1.32, 0.2475, 1.155, 0.0825, 0.99, 1.8975, 0.825, 1.7325, 0.66, 1.5675, 0.495, 1.4025, 0.33, 1.2375, 0.165, 1.0725],
  "SoftwareVersions": "syngo_MR_D13D",
  "SpacingBetweenSlices": 1.9,
  "StationName": "AWP66014",
  "TaskName": "localizer",
  "TotalReadoutTime": 0.0534753,
  "TxRefAmp": 214.959,
  "WipMemBlock": "6027f32e-42e5-4089-9bd2-d32b785f5f00||Sequence: vd13d/master r/0735857; Nov 19 2014 09:21:40 by eja",
  "dcmmeta_affine": [
    [-1.8965401649475098, 0.003310120664536953, -0.005740951281040907, 109.05440521240234],
    [0.003219930687919259, 1.8963161706924438, 0.029773294925689697, -101.74104309082031],
    [-0.005781690124422312, -0.0297093503177166, 1.899757981300354, -69.61904907226562],
    [0.0, 0.0, 0.0, 1.0]
],
  "dcmmeta_reorient_transform": [
    [0.0, -1.0, 0.0, 115.0],
    [1.0, 0.0, 0.0, 0.0],
    [0.0, 0.0, 1.0, 0.0],
    [0.0, 0.0, 0.0, 1.0]
],
  "dcmmeta_shape": [116, 116, 72, 164],
  "dcmmeta_slice_dim": 2,
  "dcmmeta_version": 0.6,
  "global": {
    "const": {
      "AcquisitionMatrix": [116, 0, 0, 116],
      "AngioFlag": "N",
      "BitsAllocated": 16,
      "BitsStored": 16,
      "BodyPartExamined": "HEAD",
      "Columns": 1044,
      "EchoNumbers": 1,
      "EchoTime": 30.0,
      "EchoTrainLength": 50,
      "FlipAngle": 81.0,
      "HighBit": 15,
      "ImageOrientationPatient": [0.99999391198999, -0.001697781688, -0.0030485275624, 0.00174533637709, 0.99987577416386, 0.01566493029521],
      "ImagePositionPatient": [-990.96560747262, -994.73194600853, -84.138058251614],
      "ImageType": [
        "ORIGINAL",
        "PRIMARY",
        "M",
        "MB",
        "ND",
        "MOSAIC"
],
      "ImagedNucleus": "1H",
      "ImagingFrequency": 123.260558,
      "InPlanePhaseEncodingDirection": "COL",
      "LargestImagePixelValue": 65535,
      "MRAcquisitionType": "2D",
      "MagneticFieldStrength": 3.0,
      "Manufacturer": "SIEMENS",
      "ManufacturerModelName": "Prisma",
      "Modality": "MR",
      "NumberOfAverages": 1.0,
      "NumberOfPhaseEncodingSteps": 101,
      "PercentPhaseFieldOfView": 100.0,
      "PercentSampling": 100.0,
      "PerformedProcedureStepStartTime": "101256.761000",
      "PhotometricInterpretation": "MONOCHROME2",
      "PixelBandwidth": 1435.0,
      "PixelRepresentation": 0,
      "PixelSpacing": [1.8965517282486, 1.8965517282486],
      "ProtocolName": "mbep2d_bold_MB3_loca2",
      "RepetitionTime": 2000.0,
      "Rows": 1044,
      "SAR": 0.06010362426879,
      "SamplesPerPixel": 1,
      "ScanOptions": [
        "PFP",
        "FS"
],
      "ScanningSequence": "EP",
      "SequenceName": "epfid2d1_116",
      "SequenceVariant": [
        "SK",
        "SS"
],
      "SeriesDescription": "mbep2d_bold_MB3_loca2",
      "SeriesNumber": 10,
      "SeriesTime": "111445.335000",
      "SliceLocation": -71.533994198918,
      "SliceThickness": 1.8999999761581,
      "SmallestImagePixelValue": 0,
      "SoftwareVersions": "syngo MR D13D",
      "SpacingBetweenSlices": 1.8999999947821,
      "SpecificCharacterSet": "ISO_IR 100",
      "StudyID": "1",
      "StudyTime": "101256.678000",
      "TimeOfLastCalibration": ["123723.000000", "123723.000000"],
      "TransmitCoilName": "Body",
      "VariableFlipAngleFlag": "N",
      "WindowCenterWidthExplanation": "Algo1",
      "dBdt": 0.0},
    "slices": {}
  },
  "time": {
    "samples": {
      "AcquisitionNumber": [1, 2, 3, 4, 5, 6, 7, 8, 9, 10, 11, 12, 13, 14, 15, 16, 17, 18, 19, 20, 21, 22, 23, 24, 25, 26, 27, 28, 29, 30, 31, 32, 33, 34, 35, 36, 37, 38, 39, 40, 41, 42, 43, 44, 45, 46, 47, 48, 49, 50, 51, 52, 53, 54, 55, 56, 57, 58, 59, 60, 61, 62, 63, 64, 65, 66, 67, 68, 69, 70, 71, 72, 73, 74, 75, 76, 77, 78, 79, 80, 81, 82, 83, 84, 85, 86, 87, 88, 89, 90, 91, 92, 93, 94, 95, 96, 97, 98, 99, 100, 101, 102, 103, 104, 105, 106, 107, 108, 109, 110, 111, 112, 113, 114, 115, 116, 117, 118, 119, 120, 121, 122, 123, 124, 125, 126, 127, 128, 129, 130, 131, 132, 133, 134, 135, 136, 137, 138, 139, 140, 141, 142, 143, 144, 145, 146, 147, 148, 149, 150, 151, 152, 153, 154, 155, 156, 157, 158, 159, 160, 161, 162, 163, 164],
      "AcquisitionTime": ["111434.055000", "111436.055000", "111438.055000", "111440.055000", "111442.055000", "111444.055000", "111446.055000", "111448.055000", "111450.055000", "111452.055000", "111454.055000", "111456.055000", "111458.055000", "111500.055000", "111502.055000", "111504.055000", "111506.055000", "111508.055000", "111510.055000", "111512.055000", "111514.055000", "111516.055000", "111518.055000", "111520.055000", "111522.055000", "111524.055000", "111526.055000", "111528.055000", "111530.055000", "111532.055000", "111534.055000", "111536.055000", "111538.055000", "111540.055000", "111542.055000", "111544.055000", "111546.055000", "111548.055000", "111550.055000", "111552.055000", "111554.055000", "111556.055000", "111558.055000", "111600.055000", "111602.055000", "111604.055000", "111606.055000", "111608.055000", "111610.055000", "111612.055000", "111614.055000", "111616.055000", "111618.055000", "111620.055000", "111622.055000", "111624.055000", "111626.055000", "111628.055000", "111630.055000", "111632.055000", "111634.055000", "111636.055000", "111638.055000", "111640.055000", "111642.055000", "111644.055000", "111646.055000", "111648.055000", "111650.055000", "111652.055000", "111654.055000", "111656.055000", "111658.055000", "111700.055000", "111702.055000", "111704.055000", "111706.055000", "111708.055000", "111710.055000", "111712.055000", "111714.055000", "111716.055000", "111718.055000", "111720.055000", "111722.055000", "111724.055000", "111726.055000", "111728.055000", "111730.055000", "111732.055000", "111734.055000", "111736.055000", "111738.055000", "111740.055000", "111742.055000", "111744.055000", "111746.055000", "111748.055000", "111750.055000", "111752.055000", "111754.055000", "111756.055000", "111758.055000", "111800.055000", "111802.055000", "111804.055000", "111806.055000", "111808.055000", "111810.055000", "111812.055000", "111814.055000", "111816.055000", "111818.055000", "111820.055000", "111822.055000", "111824.055000", "111826.055000", "111828.055000", "111830.055000", "111832.055000", "111834.055000", "111836.055000", "111838.055000", "111840.055000", "111842.055000", "111844.055000", "111846.055000", "111848.055000", "111850.055000", "111852.055000", "111854.055000", "111856.055000", "111858.055000", "111900.055000", "111902.055000", "111904.055000", "111906.055000", "111908.055000", "111910.055000", "111912.055000", "111914.055000", "111916.055000", "111918.055000", "111920.055000", "111922.055000", "111924.055000", "111926.055000", "111928.055000", "111930.055000", "111932.055000", "111934.055000", "111936.055000", "111938.055000", "111940.055000", "111942.055000", "111944.055000", "111946.055000", "111948.055000", "111950.055000", "111952.055000", "111954.055000", "111956.055000", "111958.055000", "112000.055000"],
      "ContentTime": ["111445.340000", "111446.333000", "111446.337000", "111447.333000", "111447.337000", "111448.332000", "111449.333000", "111450.834000", "111452.833000", "111454.834000", "111456.834000", "111458.834000", "111500.834000", "111502.834000", "111504.835000", "111506.834000", "111508.834000", "111510.834000", "111512.833000", "111514.834000", "111516.834000", "111518.834000", "111520.834000", "111522.834000", "111524.834000", "111526.834000", "111528.834000", "111530.834000", "111532.834000", "111534.834000", "111536.833000", "111538.833000", "111540.834000", "111542.834000", "111544.835000", "111546.834000", "111548.834000", "111550.834000", "111552.834000", "111554.834000", "111556.835000", "111558.832000", "111600.835000", "111602.834000", "111604.834000", "111606.834000", "111608.834000", "111610.834000", "111612.834000", "111614.834000", "111616.834000", "111618.835000", "111620.834000", "111622.834000", "111624.834000", "111626.834000", "111628.834000", "111630.834000", "111632.835000", "111634.835000", "111636.834000", "111638.834000", "111640.834000", "111642.834000", "111644.834000", "111646.834000", "111648.834000", "111650.834000", "111652.834000", "111654.834000", "111656.834000", "111658.834000", "111700.834000", "111702.834000", "111704.833000", "111706.832000", "111708.833000", "111710.834000", "111712.834000", "111714.834000", "111716.834000", "111718.834000", "111720.834000", "111722.834000", "111724.833000", "111726.833000", "111728.834000", "111730.834000", "111732.834000", "111734.834000", "111736.834000", "111738.834000", "111740.834000", "111742.834000", "111744.834000", "111746.835000", "111748.834000", "111750.834000", "111752.834000", "111754.834000", "111756.834000", "111758.834000", "111800.835000", "111802.834000", "111804.835000", "111806.834000", "111808.834000", "111810.834000", "111812.834000", "111814.834000", "111816.834000", "111818.834000", "111820.834000", "111822.834000", "111824.832000", "111826.834000", "111828.835000", "111830.834000", "111832.834000", "111834.834000", "111836.834000", "111838.832000", "111840.834000", "111842.834000", "111844.834000", "111846.834000", "111848.834000", "111850.834000", "111852.834000", "111854.834000", "111856.834000", "111858.834000", "111900.834000", "111902.834000", "111904.834000", "111906.834000", "111908.835000", "111910.834000", "111912.834000", "111914.834000", "111916.834000", "111918.834000", "111920.834000", "111922.841000", "111924.834000", "111926.834000", "111928.834000", "111930.834000", "111932.834000", "111934.834000", "111936.834000", "111938.834000", "111940.834000", "111942.832000", "111944.834000", "111946.834000", "111948.833000", "111950.834000", "111952.834000", "111954.834000", "111956.834000", "111958.834000", "112000.834000", "112002.757000"],
      "InstanceCreationTime": ["111445.340000", "111446.333000", "111446.337000", "111447.333000", "111447.337000", "111448.332000", "111449.333000", "111450.834000", "111452.833000", "111454.834000", "111456.834000", "111458.834000", "111500.834000", "111502.834000", "111504.835000", "111506.834000", "111508.834000", "111510.834000", "111512.833000", "111514.834000", "111516.834000", "111518.834000", "111520.834000", "111522.834000", "111524.834000", "111526.834000", "111528.834000", "111530.834000", "111532.834000", "111534.834000", "111536.833000", "111538.833000", "111540.834000", "111542.834000", "111544.835000", "111546.834000", "111548.834000", "111550.834000", "111552.834000", "111554.834000", "111556.835000", "111558.832000", "111600.835000", "111602.834000", "111604.834000", "111606.834000", "111608.834000", "111610.834000", "111612.834000", "111614.834000", "111616.834000", "111618.835000", "111620.834000", "111622.834000", "111624.834000", "111626.834000", "111628.834000", "111630.834000", "111632.835000", "111634.835000", "111636.834000", "111638.834000", "111640.834000", "111642.834000", "111644.834000", "111646.834000", "111648.834000", "111650.834000", "111652.834000", "111654.834000", "111656.834000", "111658.834000", "111700.834000", "111702.834000", "111704.833000", "111706.832000", "111708.833000", "111710.834000", "111712.834000", "111714.834000", "111716.834000", "111718.834000", "111720.834000", "111722.834000", "111724.833000", "111726.833000", "111728.834000", "111730.834000", "111732.834000", "111734.834000", "111736.834000", "111738.834000", "111740.834000", "111742.834000", "111744.834000", "111746.835000", "111748.834000", "111750.834000", "111752.834000", "111754.834000", "111756.834000", "111758.834000", "111800.835000", "111802.834000", "111804.835000", "111806.834000", "111808.834000", "111810.834000", "111812.834000", "111814.834000", "111816.834000", "111818.834000", "111820.834000", "111822.834000", "111824.832000", "111826.834000", "111828.835000", "111830.834000", "111832.834000", "111834.834000", "111836.834000", "111838.832000", "111840.834000", "111842.834000", "111844.834000", "111846.834000", "111848.834000", "111850.834000", "111852.834000", "111854.834000", "111856.834000", "111858.834000", "111900.834000", "111902.834000", "111904.834000", "111906.834000", "111908.835000", "111910.834000", "111912.834000", "111914.834000", "111916.834000", "111918.834000", "111920.834000", "111922.841000", "111924.834000", "111926.834000", "111928.834000", "111930.834000", "111932.834000", "111934.834000", "111936.834000", "111938.834000", "111940.834000", "111942.832000", "111944.834000", "111946.834000", "111948.833000", "111950.834000", "111952.834000", "111954.834000", "111956.834000", "111958.834000", "112000.834000", "112002.757000"],
      "InstanceNumber": [1, 2, 3, 4, 5, 6, 7, 8, 9, 10, 11, 12, 13, 14, 15, 16, 17, 18, 19, 20, 21, 22, 23, 24, 25, 26, 27, 28, 29, 30, 31, 32, 33, 34, 35, 36, 37, 38, 39, 40, 41, 42, 43, 44, 45, 46, 47, 48, 49, 50, 51, 52, 53, 54, 55, 56, 57, 58, 59, 60, 61, 62, 63, 64, 65, 66, 67, 68, 69, 70, 71, 72, 73, 74, 75, 76, 77, 78, 79, 80, 81, 82, 83, 84, 85, 86, 87, 88, 89, 90, 91, 92, 93, 94, 95, 96, 97, 98, 99, 100, 101, 102, 103, 104, 105, 106, 107, 108, 109, 110, 111, 112, 113, 114, 115, 116, 117, 118, 119, 120, 121, 122, 123, 124, 125, 126, 127, 128, 129, 130, 131, 132, 133, 134, 135, 136, 137, 138, 139, 140, 141, 142, 143, 144, 145, 146, 147, 148, 149, 150, 151, 152, 153, 154, 155, 156, 157, 158, 159, 160, 161, 162, 163, 164],
      "WindowCenter": [15206.0, 15191.0, 15198.0, 15196.0, 15201.0, 15205.0, 15207.0, 15203.0, 15222.0, 15206.0, 15203.0, 15196.0, 15203.0, 15186.0, 15177.0, 15162.0, 15171.0, 15189.0, 15191.0, 15163.0, 15171.0, 15169.0, 15175.0, 15185.0, 15187.0, 15192.0, 15177.0, 15174.0, 15177.0, 15183.0, 15182.0, 15178.0, 15190.0, 15191.0, 15185.0, 15173.0, 15155.0, 15155.0, 15148.0, 15164.0, 15171.0, 15168.0, 15170.0, 15166.0, 15169.0, 15178.0, 15197.0, 15184.0, 15187.0, 15192.0, 15182.0, 15169.0, 15177.0, 15171.0, 15169.0, 15155.0, 15160.0, 15155.0, 15159.0, 15173.0, 15179.0, 15191.0, 15177.0, 15177.0, 15178.0, 15169.0, 15159.0, 15175.0, 15160.0, 15161.0, 15162.0, 15164.0, 15167.0, 15160.0, 15157.0, 15168.0, 15170.0, 15174.0, 15181.0, 15177.0, 15191.0, 15191.0, 15194.0, 15164.0, 15160.0, 15169.0, 15188.0, 15194.0, 15167.0, 15155.0, 15152.0, 15140.0, 15140.0, 15149.0, 15160.0, 15180.0, 15200.0, 15169.0, 15173.0, 15158.0, 15155.0, 15146.0, 15133.0, 15175.0, 15160.0, 15176.0, 15154.0, 15152.0, 15107.0, 15101.0, 15098.0, 15127.0, 15127.0, 15109.0, 15132.0, 15111.0, 15085.0, 15117.0, 15112.0, 15092.0, 15102.0, 15108.0, 15098.0, 15108.0, 15105.0, 15096.0, 15092.0, 15084.0, 15097.0, 15108.0, 15101.0, 15108.0, 15126.0, 15129.0, 15141.0, 15139.0, 15149.0, 15148.0, 15159.0, 15164.0, 15166.0, 15172.0, 15169.0, 15173.0, 15172.0, 15160.0, 15163.0, 15177.0, 15176.0, 15172.0, 15168.0, 15146.0, 15150.0, 15170.0, 15163.0, 15158.0, 15153.0, 15158.0, 15167.0, 15184.0, 15182.0, 15170.0, 15159.0, 15149.0],
      "WindowWidth": [40929.0, 40880.0, 40872.0, 40843.0, 40876.0, 40954.0, 41000.0, 41062.0, 41085.0, 41052.0, 41009.0, 40958.0, 40895.0, 40820.0, 40764.0, 40707.0, 40910.0, 40945.0, 40933.0, 40801.0, 40827.0, 40840.0, 40893.0, 41002.0, 40976.0, 40941.0, 40841.0, 40822.0, 40823.0, 40872.0, 40897.0, 40897.0, 40951.0, 40995.0, 40927.0, 40810.0, 40704.0, 40693.0, 40757.0, 40847.0, 40897.0, 40893.0, 40870.0, 40866.0, 40955.0, 41035.0, 41043.0, 40957.0, 40892.0, 40857.0, 40874.0, 40909.0, 40885.0, 40767.0, 40844.0, 40784.0, 40783.0, 40792.0, 40869.0, 40955.0, 41009.0, 40955.0, 40893.0, 40867.0, 40837.0, 40853.0, 40866.0, 40830.0, 40840.0, 40868.0, 40895.0, 40926.0, 40927.0, 40903.0, 40860.0, 40879.0, 40941.0, 40904.0, 40969.0, 41022.0, 41068.0, 40997.0, 40862.0, 40767.0, 40831.0, 40940.0, 41020.0, 40941.0, 40819.0, 40749.0, 40731.0, 40744.0, 40770.0, 40825.0, 40883.0, 40979.0, 40962.0, 40775.0, 40885.0, 40840.0, 40875.0, 40842.0, 40897.0, 40970.0, 40944.0, 40936.0, 40768.0, 40566.0, 40386.0, 40352.0, 40377.0, 40447.0, 40435.0, 40423.0, 40450.0, 40329.0, 40255.0, 40369.0, 40330.0, 40220.0, 40209.0, 40378.0, 40284.0, 40253.0, 40305.0, 40344.0, 40284.0, 40204.0, 40308.0, 40210.0, 40272.0, 40340.0, 40363.0, 40446.0, 40517.0, 40555.0, 40611.0, 40676.0, 40716.0, 40752.0, 40794.0, 40829.0, 40880.0, 40883.0, 40866.0, 40866.0, 40927.0, 41003.0, 41017.0, 40833.0, 40811.0, 40798.0, 40858.0, 40927.0, 40890.0, 40843.0, 40807.0, 40826.0, 40885.0, 41001.0, 40982.0, 40943.0, 40830.0, 40766.0]
    },
    "slices": {}
  }
}