{
  "AcquisitionMatrixPE": 116,
  "AcquisitionNumber": 1,
  "AcquisitionTime": "11:08:12.442500",
  "BandwidthPerPixelPhaseEncode": 18.539,
  "BaseResolution": 116,
  "BodyPartExamined": "HEAD",
  "ConsistencyInfo": "N4_VD13D_LATEST_20130810",
  "ConversionSoftware": "dcm2niix",
  "ConversionSoftwareVersion": "v1.0.20190410  (JP2:OpenJPEG) (JP-LS:CharLS) GCC5.5.0",
  "DerivedVendorReportedEchoSpacing": 0.000930006,
  "DeviceSerialNumber": "66014",
  "DwellTime": 3e-06,
  "EchoTime": 0.03,
  "EchoTrainLength": 50,
  "EffectiveEchoSpacing": 0.000465003,
  "FlipAngle": 81,
  "ImageComments": "Unaliased_MB3_PE4",
  "ImageOrientationPatientDICOM": [0.999994, -0.00169778, -0.00304853, 0.00174534, 0.999876, 0.0156649],
  "ImageType": [
    "ORIGINAL",
    "PRIMARY",
    "M",
    "MB",
    "ND",
    "MOSAIC"
],
  "ImagingFrequency": 123.261,
  "InPlanePhaseEncodingDirectionDICOM": "COL",
  "InstitutionAddress": "Yiheyuan_Road_5_Beijing_Haidian_CN_100871",
  "InstitutionName": "Peking_University",
  "InstitutionalDepartmentName": "Department",
  "MRAcquisitionType": "2D",
  "MagneticFieldStrength": 3,
  "Manufacturer": "Siemens",
  "ManufacturersModelName": "Prisma",
  "Modality": "MR",
  "MultibandAccelerationFactor": 3,
  "ParallelReductionFactorInPlane": 2,
  "PartialFourier": 0.875,
  "PatientPosition": "HFS",
  "PercentPhaseFOV": 100,
  "PhaseEncodingDirection": "j-",
  "PhaseEncodingSteps": 101,
  "PhaseResolution": 1,
  "PixelBandwidth": 1435,
  "ProcedureStepDescription": "Research_Projects_64CH",
  "ProtocolName": "mbep2d_bold_MB3_loca1",
  "PulseSequenceDetails": "%CustomerSeq%_cmrr_mbep2d_bold",
  "ReceiveCoilActiveElements": "HC3-7",
  "ReceiveCoilName": "HeadNeck_64",
  "ReconMatrixPE": 116,
  "RefLinesPE": 44,
  "RepetitionTime": 2,
  "SAR": 0.0601036,
  "ScanOptions": "PFP_FS",
  "ScanningSequence": "EP",
  "SequenceName": "epfid2d1_116",
  "SequenceVariant": "SK_SS",
  "SeriesDescription": "mbep2d_bold_MB3_loca1",
  "SeriesNumber": 9,
  "ShimSetting": [-3447, -2131, -1912, 422, 40, -187, 92, -33],
  "SliceThickness": 1.9,
  "SliceTiming": [0, 0.9075, 1.815, 0.7425, 1.65, 0.5775, 1.485, 0.4125, 1.32, 0.2475, 1.155, 0.0825, 0.99, 1.8975, 0.825, 1.7325, 0.66, 1.5675, 0.495, 1.4025, 0.33, 1.2375, 0.165, 1.0725, 0, 0.9075, 1.815, 0.7425, 1.65, 0.5775, 1.485, 0.4125, 1.32, 0.2475, 1.155, 0.0825, 0.99, 1.8975, 0.825, 1.7325, 0.66, 1.5675, 0.495, 1.4025, 0.33, 1.2375, 0.165, 1.0725, 0, 0.9075, 1.815, 0.7425, 1.65, 0.5775, 1.485, 0.4125, 1.32, 0.2475, 1.155, 0.0825, 0.99, 1.8975, 0.825, 1.7325, 0.66, 1.5675, 0.495, 1.4025, 0.33, 1.2375, 0.165, 1.0725],
  "SoftwareVersions": "syngo_MR_D13D",
  "SpacingBetweenSlices": 1.9,
  "StationName": "AWP66014",
  "TaskName": "localizer",
  "TotalReadoutTime": 0.0534753,
  "TxRefAmp": 214.959,
  "WipMemBlock": "df4f195f-1ddf-4725-9375-1fe57e4714c1||Sequence: vd13d/master r/0735857; Nov 19 2014 09:21:40 by eja",
  "dcmmeta_affine": [
    [-1.8965401649475098, 0.003310120664536953, -0.005740951281040907, 109.05440521240234],
    [0.003219930687919259, 1.8963161706924438, 0.029773294925689697, -101.74104309082031],
    [-0.005781690124422312, -0.0297093503177166, 1.899757981300354, -69.61904907226562],
    [0.0, 0.0, 0.0, 1.0]
],
  "dcmmeta_reorient_transform": [
    [0.0, -1.0, 0.0, 115.0],
    [1.0, 0.0, 0.0, 0.0],
    [0.0, 0.0, 1.0, 0.0],
    [0.0, 0.0, 0.0, 1.0]
],
  "dcmmeta_shape": [116, 116, 72, 164],
  "dcmmeta_slice_dim": 2,
  "dcmmeta_version": 0.6,
  "global": {
    "const": {
      "AcquisitionMatrix": [116, 0, 0, 116],
      "AngioFlag": "N",
      "BitsAllocated": 16,
      "BitsStored": 16,
      "BodyPartExamined": "HEAD",
      "Columns": 1044,
      "EchoNumbers": 1,
      "EchoTime": 30.0,
      "EchoTrainLength": 50,
      "FlipAngle": 81.0,
      "HighBit": 15,
      "ImageOrientationPatient": [0.99999391198999, -0.001697781688, -0.0030485275624, 0.00174533637709, 0.99987577416386, 0.01566493029521],
      "ImagePositionPatient": [-990.96560747262, -994.73194600853, -84.138058251614],
      "ImageType": [
        "ORIGINAL",
        "PRIMARY",
        "M",
        "MB",
        "ND",
        "MOSAIC"
],
      "ImagedNucleus": "1H",
      "ImagingFrequency": 123.26056,
      "InPlanePhaseEncodingDirection": "COL",
      "LargestImagePixelValue": 65535,
      "MRAcquisitionType": "2D",
      "MagneticFieldStrength": 3.0,
      "Manufacturer": "SIEMENS",
      "ManufacturerModelName": "Prisma",
      "Modality": "MR",
      "NumberOfAverages": 1.0,
      "NumberOfPhaseEncodingSteps": 101,
      "PercentPhaseFieldOfView": 100.0,
      "PercentSampling": 100.0,
      "PerformedProcedureStepStartTime": "101256.761000",
      "PhotometricInterpretation": "MONOCHROME2",
      "PixelBandwidth": 1435.0,
      "PixelRepresentation": 0,
      "PixelSpacing": [1.8965517282486, 1.8965517282486],
      "ProtocolName": "mbep2d_bold_MB3_loca1",
      "RepetitionTime": 2000.0,
      "Rows": 1044,
      "SAR": 0.06010362426879,
      "SamplesPerPixel": 1,
      "ScanOptions": [
        "PFP",
        "FS"
],
      "ScanningSequence": "EP",
      "SequenceName": "epfid2d1_116",
      "SequenceVariant": [
        "SK",
        "SS"
],
      "SeriesDescription": "mbep2d_bold_MB3_loca1",
      "SeriesNumber": 9,
      "SeriesTime": "110823.366000",
      "SliceLocation": -71.533994198918,
      "SliceThickness": 1.8999999761581,
      "SmallestImagePixelValue": 0,
      "SoftwareVersions": "syngo MR D13D",
      "SpacingBetweenSlices": 1.8999999947821,
      "SpecificCharacterSet": "ISO_IR 100",
      "StudyID": "1",
      "StudyTime": "101256.678000",
      "TimeOfLastCalibration": ["123723.000000", "123723.000000"],
      "TransmitCoilName": "Body",
      "VariableFlipAngleFlag": "N",
      "WindowCenterWidthExplanation": "Algo1",
      "dBdt": 0.0},
    "slices": {}
  },
  "time": {
    "samples": {
      "AcquisitionNumber": [1, 2, 3, 4, 5, 6, 7, 8, 9, 10, 11, 12, 13, 14, 15, 16, 17, 18, 19, 20, 21, 22, 23, 24, 25, 26, 27, 28, 29, 30, 31, 32, 33, 34, 35, 36, 37, 38, 39, 40, 41, 42, 43, 44, 45, 46, 47, 48, 49, 50, 51, 52, 53, 54, 55, 56, 57, 58, 59, 60, 61, 62, 63, 64, 65, 66, 67, 68, 69, 70, 71, 72, 73, 74, 75, 76, 77, 78, 79, 80, 81, 82, 83, 84, 85, 86, 87, 88, 89, 90, 91, 92, 93, 94, 95, 96, 97, 98, 99, 100, 101, 102, 103, 104, 105, 106, 107, 108, 109, 110, 111, 112, 113, 114, 115, 116, 117, 118, 119, 120, 121, 122, 123, 124, 125, 126, 127, 128, 129, 130, 131, 132, 133, 134, 135, 136, 137, 138, 139, 140, 141, 142, 143, 144, 145, 146, 147, 148, 149, 150, 151, 152, 153, 154, 155, 156, 157, 158, 159, 160, 161, 162, 163, 164],
      "AcquisitionTime": ["110812.442500", "110814.442500", "110816.442500", "110818.442500", "110820.442500", "110822.442500", "110824.442500", "110826.442500", "110828.442500", "110830.442500", "110832.442500", "110834.442500", "110836.442500", "110838.442500", "110840.442500", "110842.442500", "110844.442500", "110846.442500", "110848.442500", "110850.442500", "110852.442500", "110854.442500", "110856.442500", "110858.442500", "110900.442500", "110902.442500", "110904.442500", "110906.442500", "110908.442500", "110910.442500", "110912.442500", "110914.442500", "110916.442500", "110918.442500", "110920.442500", "110922.442500", "110924.442500", "110926.442500", "110928.442500", "110930.442500", "110932.442500", "110934.442500", "110936.442500", "110938.442500", "110940.442500", "110942.442500", "110944.442500", "110946.442500", "110948.442500", "110950.442500", "110952.442500", "110954.442500", "110956.442500", "110958.442500", "111000.442500", "111002.442500", "111004.442500", "111006.442500", "111008.442500", "111010.442500", "111012.442500", "111014.442500", "111016.442500", "111018.442500", "111020.442500", "111022.442500", "111024.442500", "111026.442500", "111028.442500", "111030.442500", "111032.442500", "111034.442500", "111036.442500", "111038.442500", "111040.442500", "111042.442500", "111044.442500", "111046.442500", "111048.442500", "111050.442500", "111052.442500", "111054.442500", "111056.442500", "111058.442500", "111100.442500", "111102.442500", "111104.442500", "111106.442500", "111108.442500", "111110.442500", "111112.442500", "111114.442500", "111116.442500", "111118.442500", "111120.442500", "111122.442500", "111124.442500", "111126.442500", "111128.442500", "111130.442500", "111132.442500", "111134.442500", "111136.442500", "111138.442500", "111140.442500", "111142.442500", "111144.442500", "111146.442500", "111148.442500", "111150.442500", "111152.442500", "111154.442500", "111156.442500", "111158.442500", "111200.442500", "111202.442500", "111204.442500", "111206.442500", "111208.442500", "111210.442500", "111212.442500", "111214.442500", "111216.442500", "111218.442500", "111220.442500", "111222.442500", "111224.442500", "111226.442500", "111228.442500", "111230.442500", "111232.442500", "111234.442500", "111236.442500", "111238.442500", "111240.442500", "111242.442500", "111244.442500", "111246.442500", "111248.442500", "111250.442500", "111252.442500", "111254.442500", "111256.442500", "111258.442500", "111300.442500", "111302.442500", "111304.442500", "111306.442500", "111308.442500", "111310.442500", "111312.442500", "111314.442500", "111316.442500", "111318.442500", "111320.442500", "111322.442500", "111324.442500", "111326.442500", "111328.442500", "111330.442500", "111332.442500", "111334.442500", "111336.442500", "111338.442500"],
      "ContentTime": ["110823.371000", "110824.364000", "110824.369000", "110825.365000", "110825.369000", "110826.365000", "110827.364000", "110828.865000", "110830.866000", "110832.865000", "110834.865000", "110836.865000", "110838.865000", "110840.866000", "110842.865000", "110844.865000", "110846.865000", "110848.866000", "110850.865000", "110852.865000", "110854.865000", "110856.865000", "110858.865000", "110900.865000", "110902.865000", "110904.865000", "110906.866000", "110908.865000", "110910.865000", "110912.865000", "110914.865000", "110916.865000", "110918.865000", "110920.865000", "110922.865000", "110924.865000", "110926.866000", "110928.865000", "110930.865000", "110932.865000", "110934.865000", "110936.865000", "110938.865000", "110940.866000", "110942.865000", "110944.865000", "110946.864000", "110948.865000", "110950.866000", "110952.865000", "110954.865000", "110956.864000", "110958.864000", "111000.865000", "111002.865000", "111004.865000", "111006.865000", "111008.865000", "111010.865000", "111012.865000", "111014.865000", "111016.866000", "111018.865000", "111020.865000", "111022.865000", "111024.863000", "111026.865000", "111028.865000", "111030.865000", "111032.865000", "111034.865000", "111036.866000", "111038.865000", "111040.865000", "111042.865000", "111044.865000", "111046.865000", "111048.865000", "111050.866000", "111052.865000", "111054.865000", "111056.865000", "111058.865000", "111100.865000", "111102.865000", "111104.865000", "111106.865000", "111108.866000", "111110.865000", "111112.866000", "111114.865000", "111116.865000", "111118.865000", "111120.865000", "111122.865000", "111124.865000", "111126.866000", "111128.865000", "111130.863000", "111132.865000", "111134.865000", "111136.866000", "111138.864000", "111140.865000", "111142.865000", "111144.865000", "111146.865000", "111148.865000", "111150.865000", "111152.864000", "111154.865000", "111156.865000", "111158.865000", "111200.867000", "111202.865000", "111204.865000", "111206.865000", "111208.865000", "111210.865000", "111212.865000", "111214.864000", "111216.864000", "111218.866000", "111220.865000", "111222.865000", "111224.865000", "111226.865000", "111228.866000", "111230.865000", "111232.865000", "111234.865000", "111236.866000", "111238.865000", "111240.865000", "111242.865000", "111244.865000", "111246.865000", "111248.865000", "111250.865000", "111252.865000", "111254.865000", "111256.865000", "111258.865000", "111300.865000", "111302.865000", "111304.865000", "111306.865000", "111308.865000", "111310.866000", "111312.865000", "111314.865000", "111316.865000", "111318.865000", "111320.865000", "111322.874000", "111324.865000", "111326.865000", "111328.866000", "111330.865000", "111332.865000", "111334.865000", "111336.865000", "111338.865000", "111340.752000"],
      "InstanceCreationTime": ["110823.371000", "110824.364000", "110824.369000", "110825.365000", "110825.369000", "110826.365000", "110827.364000", "110828.865000", "110830.866000", "110832.865000", "110834.865000", "110836.865000", "110838.865000", "110840.866000", "110842.865000", "110844.865000", "110846.865000", "110848.866000", "110850.865000", "110852.865000", "110854.865000", "110856.865000", "110858.865000", "110900.865000", "110902.865000", "110904.865000", "110906.866000", "110908.865000", "110910.865000", "110912.865000", "110914.865000", "110916.865000", "110918.865000", "110920.865000", "110922.865000", "110924.865000", "110926.866000", "110928.865000", "110930.865000", "110932.865000", "110934.865000", "110936.865000", "110938.865000", "110940.866000", "110942.865000", "110944.865000", "110946.864000", "110948.865000", "110950.866000", "110952.865000", "110954.865000", "110956.864000", "110958.864000", "111000.865000", "111002.865000", "111004.865000", "111006.865000", "111008.865000", "111010.865000", "111012.865000", "111014.865000", "111016.866000", "111018.865000", "111020.865000", "111022.865000", "111024.863000", "111026.865000", "111028.865000", "111030.865000", "111032.865000", "111034.865000", "111036.866000", "111038.865000", "111040.865000", "111042.865000", "111044.865000", "111046.865000", "111048.865000", "111050.866000", "111052.865000", "111054.865000", "111056.865000", "111058.865000", "111100.865000", "111102.865000", "111104.865000", "111106.865000", "111108.866000", "111110.865000", "111112.866000", "111114.865000", "111116.865000", "111118.865000", "111120.865000", "111122.865000", "111124.865000", "111126.866000", "111128.865000", "111130.863000", "111132.865000", "111134.865000", "111136.866000", "111138.864000", "111140.865000", "111142.865000", "111144.865000", "111146.865000", "111148.865000", "111150.865000", "111152.864000", "111154.865000", "111156.865000", "111158.865000", "111200.867000", "111202.865000", "111204.865000", "111206.865000", "111208.865000", "111210.865000", "111212.865000", "111214.864000", "111216.864000", "111218.866000", "111220.865000", "111222.865000", "111224.865000", "111226.865000", "111228.866000", "111230.865000", "111232.865000", "111234.865000", "111236.866000", "111238.865000", "111240.865000", "111242.865000", "111244.865000", "111246.865000", "111248.865000", "111250.865000", "111252.865000", "111254.865000", "111256.865000", "111258.865000", "111300.865000", "111302.865000", "111304.865000", "111306.865000", "111308.865000", "111310.866000", "111312.865000", "111314.865000", "111316.865000", "111318.865000", "111320.865000", "111322.874000", "111324.865000", "111326.865000", "111328.866000", "111330.865000", "111332.865000", "111334.865000", "111336.865000", "111338.865000", "111340.752000"],
      "InstanceNumber": [1, 2, 3, 4, 5, 6, 7, 8, 9, 10, 11, 12, 13, 14, 15, 16, 17, 18, 19, 20, 21, 22, 23, 24, 25, 26, 27, 28, 29, 30, 31, 32, 33, 34, 35, 36, 37, 38, 39, 40, 41, 42, 43, 44, 45, 46, 47, 48, 49, 50, 51, 52, 53, 54, 55, 56, 57, 58, 59, 60, 61, 62, 63, 64, 65, 66, 67, 68, 69, 70, 71, 72, 73, 74, 75, 76, 77, 78, 79, 80, 81, 82, 83, 84, 85, 86, 87, 88, 89, 90, 91, 92, 93, 94, 95, 96, 97, 98, 99, 100, 101, 102, 103, 104, 105, 106, 107, 108, 109, 110, 111, 112, 113, 114, 115, 116, 117, 118, 119, 120, 121, 122, 123, 124, 125, 126, 127, 128, 129, 130, 131, 132, 133, 134, 135, 136, 137, 138, 139, 140, 141, 142, 143, 144, 145, 146, 147, 148, 149, 150, 151, 152, 153, 154, 155, 156, 157, 158, 159, 160, 161, 162, 163, 164],
      "WindowCenter": [15109.0, 15097.0, 15118.0, 15108.0, 15107.0, 15118.0, 15103.0, 15104.0, 15104.0, 15094.0, 15104.0, 15092.0, 15107.0, 15112.0, 15100.0, 15107.0, 15105.0, 15102.0, 15101.0, 15099.0, 15096.0, 15088.0, 15044.0, 15109.0, 15099.0, 15096.0, 15094.0, 15090.0, 15105.0, 15100.0, 15103.0, 15100.0, 15100.0, 15112.0, 15111.0, 15115.0, 15106.0, 15102.0, 15084.0, 15073.0, 15085.0, 15106.0, 15096.0, 15115.0, 15116.0, 15127.0, 15110.0, 15116.0, 15108.0, 15111.0, 15117.0, 15112.0, 15103.0, 15104.0, 15089.0, 15099.0, 15079.0, 15085.0, 15096.0, 15090.0, 15107.0, 15103.0, 15109.0, 15085.0, 15083.0, 15088.0, 15094.0, 15099.0, 15096.0, 15101.0, 15094.0, 15081.0, 15078.0, 15095.0, 15097.0, 15100.0, 15099.0, 15099.0, 15093.0, 15108.0, 15099.0, 15105.0, 15102.0, 15116.0, 15101.0, 15106.0, 15106.0, 15093.0, 15092.0, 15077.0, 15066.0, 15083.0, 15086.0, 15085.0, 15090.0, 15092.0, 15087.0, 15079.0, 15084.0, 15100.0, 15095.0, 15107.0, 15092.0, 15078.0, 15083.0, 15092.0, 15093.0, 15091.0, 15085.0, 15085.0, 15084.0, 15085.0, 15086.0, 15091.0, 15091.0, 15110.0, 15095.0, 15105.0, 15087.0, 15069.0, 15064.0, 15071.0, 15085.0, 15093.0, 15094.0, 15084.0, 15087.0, 15079.0, 15064.0, 15069.0, 15085.0, 15102.0, 15093.0, 15092.0, 15098.0, 15101.0, 15100.0, 15089.0, 15079.0, 15082.0, 15089.0, 15085.0, 15089.0, 15085.0, 15090.0, 15082.0, 15097.0, 15102.0, 15103.0, 15101.0, 15098.0, 15117.0, 15114.0, 15042.0, 15112.0, 15065.0, 15103.0, 15082.0, 15073.0, 15079.0, 15076.0, 15051.0, 15065.0, 15064.0],
      "WindowWidth": [41059.0, 40661.0, 41180.0, 40936.0, 40901.0, 40844.0, 40857.0, 40855.0, 40886.0, 40871.0, 40901.0, 40942.0, 40973.0, 41005.0, 41017.0, 40994.0, 40978.0, 40919.0, 40872.0, 40814.0, 40811.0, 40833.0, 40429.0, 40914.0, 40873.0, 40814.0, 40786.0, 40863.0, 40966.0, 40890.0, 40979.0, 40907.0, 40947.0, 40977.0, 41017.0, 41007.0, 40922.0, 40817.0, 40725.0, 40742.0, 40855.0, 40911.0, 40871.0, 40943.0, 40971.0, 40970.0, 40946.0, 40953.0, 40956.0, 40958.0, 40967.0, 40961.0, 40960.0, 40903.0, 40856.0, 40803.0, 40792.0, 40901.0, 40884.0, 40934.0, 40968.0, 40949.0, 40869.0, 40772.0, 40728.0, 40874.0, 40663.0, 40969.0, 40933.0, 40855.0, 40805.0, 40775.0, 40831.0, 40879.0, 40939.0, 40887.0, 40862.0, 40862.0, 40911.0, 40930.0, 40948.0, 40954.0, 40977.0, 40984.0, 40924.0, 40954.0, 40938.0, 40890.0, 40830.0, 40781.0, 40785.0, 40779.0, 40811.0, 40870.0, 40848.0, 40808.0, 40760.0, 40793.0, 40841.0, 40920.0, 40953.0, 40940.0, 40850.0, 40817.0, 40868.0, 40907.0, 40937.0, 40886.0, 40852.0, 40825.0, 40853.0, 40897.0, 40885.0, 40866.0, 40785.0, 41031.0, 40980.0, 40905.0, 40796.0, 40719.0, 40668.0, 40693.0, 40771.0, 40931.0, 40944.0, 40830.0, 40764.0, 40711.0, 40724.0, 40857.0, 40774.0, 40959.0, 40961.0, 40916.0, 40908.0, 40869.0, 40839.0, 40743.0, 40744.0, 40759.0, 40779.0, 40912.0, 40962.0, 40916.0, 40877.0, 40928.0, 40945.0, 40979.0, 40955.0, 40923.0, 40922.0, 40975.0, 40971.0, 40562.0, 40939.0, 40679.0, 40845.0, 40816.0, 40732.0, 40714.0, 40665.0, 40520.0, 40526.0, 40510.0]
    },
    "slices": {}
  }
}