{
  "AcquisitionMatrixPE": 116,
  "AcquisitionNumber": 1,
  "AcquisitionTime": "10:57:21.622500",
  "BandwidthPerPixelPhaseEncode": 18.539,
  "BaseResolution": 116,
  "BodyPartExamined": "HEAD",
  "ConsistencyInfo": "N4_VD13D_LATEST_20130810",
  "ConversionSoftware": "dcm2niix",
  "ConversionSoftwareVersion": "v1.0.20190410  (JP2:OpenJPEG) (JP-LS:CharLS) GCC5.5.0",
  "DerivedVendorReportedEchoSpacing": 0.000930006,
  "DeviceSerialNumber": "66014",
  "DwellTime": 3e-06,
  "EchoTime": 0.03,
  "EchoTrainLength": 50,
  "EffectiveEchoSpacing": 0.000465003,
  "FlipAngle": 81,
  "ImageComments": "Unaliased_MB3_PE4",
  "ImageOrientationPatientDICOM": [0.999994, -0.00169778, -0.00304853, 0.00174534, 0.999876, 0.0156649],
  "ImageType": [
    "ORIGINAL",
    "PRIMARY",
    "M",
    "MB",
    "ND",
    "MOSAIC"
],
  "ImagingFrequency": 123.261,
  "InPlanePhaseEncodingDirectionDICOM": "COL",
  "InstitutionAddress": "Yiheyuan_Road_5_Beijing_Haidian_CN_100871",
  "InstitutionName": "Peking_University",
  "InstitutionalDepartmentName": "Department",
  "MRAcquisitionType": "2D",
  "MagneticFieldStrength": 3,
  "Manufacturer": "Siemens",
  "ManufacturersModelName": "Prisma",
  "Modality": "MR",
  "MultibandAccelerationFactor": 3,
  "ParallelReductionFactorInPlane": 2,
  "PartialFourier": 0.875,
  "PatientPosition": "HFS",
  "PercentPhaseFOV": 100,
  "PhaseEncodingDirection": "j-",
  "PhaseEncodingSteps": 101,
  "PhaseResolution": 1,
  "PixelBandwidth": 1435,
  "ProcedureStepDescription": "Research_Projects_64CH",
  "ProtocolName": "mbep2d_bold_MB3_test3",
  "PulseSequenceDetails": "%CustomerSeq%_cmrr_mbep2d_bold",
  "ReceiveCoilActiveElements": "HC3-7",
  "ReceiveCoilName": "HeadNeck_64",
  "ReconMatrixPE": 116,
  "RefLinesPE": 44,
  "RepetitionTime": 2,
  "SAR": 0.0612468,
  "ScanOptions": "PFP_FS",
  "ScanningSequence": "EP",
  "SequenceName": "epfid2d1_116",
  "SequenceVariant": "SK_SS",
  "SeriesDescription": "mbep2d_bold_MB3_test3",
  "SeriesNumber": 8,
  "ShimSetting": [-3447, -2131, -1912, 422, 40, -187, 92, -33],
  "SliceThickness": 1.9,
  "SliceTiming": [0, 0.9075, 1.815, 0.7425, 1.65, 0.5775, 1.485, 0.4125, 1.32, 0.2475, 1.155, 0.0825, 0.99, 1.8975, 0.825, 1.7325, 0.66, 1.5675, 0.495, 1.4025, 0.33, 1.2375, 0.165, 1.0725, 0, 0.9075, 1.815, 0.7425, 1.65, 0.5775, 1.485, 0.4125, 1.32, 0.2475, 1.155, 0.0825, 0.99, 1.8975, 0.825, 1.7325, 0.66, 1.5675, 0.495, 1.4025, 0.33, 1.2375, 0.165, 1.0725, 0, 0.9075, 1.815, 0.7425, 1.65, 0.5775, 1.485, 0.4125, 1.32, 0.2475, 1.155, 0.0825, 0.99, 1.8975, 0.825, 1.7325, 0.66, 1.5675, 0.495, 1.4025, 0.33, 1.2375, 0.165, 1.0725],
  "SoftwareVersions": "syngo_MR_D13D",
  "SpacingBetweenSlices": 1.9,
  "StationName": "AWP66014",
  "TaskName": "retrieval",
  "TotalReadoutTime": 0.0534753,
  "TxRefAmp": 214.959,
  "WipMemBlock": "ade2f071-b6e1-4437-b685-1762b78b265b||Sequence: vd13d/master r/0735857; Nov 19 2014 09:21:40 by eja",
  "dcmmeta_affine": [
    [-1.8965401649475098, 0.003310120664536953, -0.005740951281040907, 109.05440521240234],
    [0.003219930687919259, 1.8963161706924438, 0.029773294925689697, -101.74104309082031],
    [-0.005781690124422312, -0.0297093503177166, 1.899757981300354, -69.61904907226562],
    [0.0, 0.0, 0.0, 1.0]
],
  "dcmmeta_reorient_transform": [
    [0.0, -1.0, 0.0, 115.0],
    [1.0, 0.0, 0.0, 0.0],
    [0.0, 0.0, 1.0, 0.0],
    [0.0, 0.0, 0.0, 1.0]
],
  "dcmmeta_shape": [116, 116, 72, 289],
  "dcmmeta_slice_dim": 2,
  "dcmmeta_version": 0.6,
  "global": {
    "const": {
      "AcquisitionMatrix": [116, 0, 0, 116],
      "AngioFlag": "N",
      "BitsAllocated": 16,
      "BitsStored": 16,
      "BodyPartExamined": "HEAD",
      "Columns": 1044,
      "EchoNumbers": 1,
      "EchoTime": 30.0,
      "EchoTrainLength": 50,
      "FlipAngle": 81.0,
      "HighBit": 15,
      "ImageOrientationPatient": [0.99999391198999, -0.001697781688, -0.0030485275624, 0.00174533637709, 0.99987577416386, 0.01566493029521],
      "ImagePositionPatient": [-990.96560747262, -994.73194600853, -84.138058251614],
      "ImageType": [
        "ORIGINAL",
        "PRIMARY",
        "M",
        "MB",
        "ND",
        "MOSAIC"
],
      "ImagedNucleus": "1H",
      "ImagingFrequency": 123.260558,
      "InPlanePhaseEncodingDirection": "COL",
      "LargestImagePixelValue": 65535,
      "MRAcquisitionType": "2D",
      "MagneticFieldStrength": 3.0,
      "Manufacturer": "SIEMENS",
      "ManufacturerModelName": "Prisma",
      "Modality": "MR",
      "NumberOfAverages": 1.0,
      "NumberOfPhaseEncodingSteps": 101,
      "PercentPhaseFieldOfView": 100.0,
      "PercentSampling": 100.0,
      "PerformedProcedureStepStartTime": "101256.761000",
      "PhotometricInterpretation": "MONOCHROME2",
      "PixelBandwidth": 1435.0,
      "PixelRepresentation": 0,
      "PixelSpacing": [1.8965517282486, 1.8965517282486],
      "ProtocolName": "mbep2d_bold_MB3_test3",
      "RepetitionTime": 2000.0,
      "Rows": 1044,
      "SAR": 0.06124683513039,
      "SamplesPerPixel": 1,
      "ScanOptions": [
        "PFP",
        "FS"
],
      "ScanningSequence": "EP",
      "SequenceName": "epfid2d1_116",
      "SequenceVariant": [
        "SK",
        "SS"
],
      "SeriesDescription": "mbep2d_bold_MB3_test3",
      "SeriesNumber": 8,
      "SeriesTime": "105731.836000",
      "SliceLocation": -71.533994198918,
      "SliceThickness": 1.8999999761581,
      "SmallestImagePixelValue": 0,
      "SoftwareVersions": "syngo MR D13D",
      "SpacingBetweenSlices": 1.8999999947821,
      "SpecificCharacterSet": "ISO_IR 100",
      "StudyID": "1",
      "StudyTime": "101256.678000",
      "TimeOfLastCalibration": ["123723.000000", "123723.000000"],
      "TransmitCoilName": "Body",
      "VariableFlipAngleFlag": "N",
      "WindowCenterWidthExplanation": "Algo1",
      "dBdt": 0.0},
    "slices": {}
  },
  "time": {
    "samples": {
      "AcquisitionNumber": [1, 2, 3, 4, 5, 6, 7, 8, 9, 10, 11, 12, 13, 14, 15, 16, 17, 18, 19, 20, 21, 22, 23, 24, 25, 26, 27, 28, 29, 30, 31, 32, 33, 34, 35, 36, 37, 38, 39, 40, 41, 42, 43, 44, 45, 46, 47, 48, 49, 50, 51, 52, 53, 54, 55, 56, 57, 58, 59, 60, 61, 62, 63, 64, 65, 66, 67, 68, 69, 70, 71, 72, 73, 74, 75, 76, 77, 78, 79, 80, 81, 82, 83, 84, 85, 86, 87, 88, 89, 90, 91, 92, 93, 94, 95, 96, 97, 98, 99, 100, 101, 102, 103, 104, 105, 106, 107, 108, 109, 110, 111, 112, 113, 114, 115, 116, 117, 118, 119, 120, 121, 122, 123, 124, 125, 126, 127, 128, 129, 130, 131, 132, 133, 134, 135, 136, 137, 138, 139, 140, 141, 142, 143, 144, 145, 146, 147, 148, 149, 150, 151, 152, 153, 154, 155, 156, 157, 158, 159, 160, 161, 162, 163, 164, 165, 166, 167, 168, 169, 170, 171, 172, 173, 174, 175, 176, 177, 178, 179, 180, 181, 182, 183, 184, 185, 186, 187, 188, 189, 190, 191, 192, 193, 194, 195, 196, 197, 198, 199, 200, 201, 202, 203, 204, 205, 206, 207, 208, 209, 210, 211, 212, 213, 214, 215, 216, 217, 218, 219, 220, 221, 222, 223, 224, 225, 226, 227, 228, 229, 230, 231, 232, 233, 234, 235, 236, 237, 238, 239, 240, 241, 242, 243, 244, 245, 246, 247, 248, 249, 250, 251, 252, 253, 254, 255, 256, 257, 258, 259, 260, 261, 262, 263, 264, 265, 266, 267, 268, 269, 270, 271, 272, 273, 274, 275, 276, 277, 278, 279, 280, 281, 282, 283, 284, 285, 286, 287, 288, 289],
      "AcquisitionTime": ["105721.622500", "105723.622500", "105725.622500", "105727.622500", "105729.622500", "105731.622500", "105733.622500", "105735.622500", "105737.622500", "105739.622500", "105741.622500", "105743.622500", "105745.622500", "105747.622500", "105749.622500", "105751.622500", "105753.625000", "105755.625000", "105757.625000", "105759.625000", "105801.625000", "105803.625000", "105805.625000", "105807.625000", "105809.625000", "105811.625000", "105813.625000", "105815.625000", "105817.625000", "105819.625000", "105821.625000", "105823.625000", "105825.625000", "105827.625000", "105829.625000", "105831.625000", "105833.625000", "105835.625000", "105837.625000", "105839.625000", "105841.625000", "105843.625000", "105845.625000", "105847.625000", "105849.625000", "105851.625000", "105853.625000", "105855.625000", "105857.625000", "105859.625000", "105901.625000", "105903.625000", "105905.625000", "105907.625000", "105909.625000", "105911.625000", "105913.625000", "105915.625000", "105917.625000", "105919.625000", "105921.625000", "105923.625000", "105925.625000", "105927.625000", "105929.625000", "105931.625000", "105933.625000", "105935.625000", "105937.625000", "105939.625000", "105941.625000", "105943.625000", "105945.625000", "105947.625000", "105949.625000", "105951.625000", "105953.625000", "105955.625000", "105957.625000", "105959.625000", "110001.625000", "110003.625000", "110005.625000", "110007.625000", "110009.625000", "110011.625000", "110013.625000", "110015.625000", "110017.625000", "110019.625000", "110021.625000", "110023.625000", "110025.625000", "110027.625000", "110029.625000", "110031.625000", "110033.625000", "110035.625000", "110037.625000", "110039.625000", "110041.625000", "110043.625000", "110045.625000", "110047.625000", "110049.625000", "110051.625000", "110053.625000", "110055.625000", "110057.625000", "110059.625000", "110101.625000", "110103.625000", "110105.625000", "110107.625000", "110109.625000", "110111.625000", "110113.625000", "110115.625000", "110117.625000", "110119.625000", "110121.625000", "110123.625000", "110125.625000", "110127.625000", "110129.625000", "110131.625000", "110133.625000", "110135.625000", "110137.625000", "110139.625000", "110141.625000", "110143.625000", "110145.625000", "110147.625000", "110149.625000", "110151.625000", "110153.625000", "110155.625000", "110157.625000", "110159.625000", "110201.625000", "110203.625000", "110205.625000", "110207.625000", "110209.625000", "110211.625000", "110213.625000", "110215.625000", "110217.625000", "110219.625000", "110221.625000", "110223.625000", "110225.625000", "110227.625000", "110229.625000", "110231.625000", "110233.625000", "110235.625000", "110237.625000", "110239.625000", "110241.625000", "110243.625000", "110245.625000", "110247.625000", "110249.625000", "110251.625000", "110253.625000", "110255.625000", "110257.625000", "110259.625000", "110301.625000", "110303.625000", "110305.625000", "110307.625000", "110309.625000", "110311.625000", "110313.625000", "110315.625000", "110317.625000", "110319.625000", "110321.625000", "110323.625000", "110325.625000", "110327.625000", "110329.625000", "110331.625000", "110333.625000", "110335.625000", "110337.625000", "110339.625000", "110341.625000", "110343.625000", "110345.625000", "110347.625000", "110349.625000", "110351.625000", "110353.625000", "110355.625000", "110357.625000", "110359.625000", "110401.625000", "110403.625000", "110405.625000", "110407.625000", "110409.625000", "110411.625000", "110413.625000", "110415.625000", "110417.625000", "110419.625000", "110421.625000", "110423.625000", "110425.625000", "110427.625000", "110429.625000", "110431.625000", "110433.625000", "110435.625000", "110437.625000", "110439.625000", "110441.625000", "110443.625000", "110445.625000", "110447.625000", "110449.625000", "110451.625000", "110453.625000", "110455.625000", "110457.625000", "110459.625000", "110501.625000", "110503.625000", "110505.625000", "110507.625000", "110509.625000", "110511.625000", "110513.625000", "110515.625000", "110517.625000", "110519.625000", "110521.625000", "110523.625000", "110525.625000", "110527.625000", "110529.625000", "110531.625000", "110533.625000", "110535.625000", "110537.625000", "110539.625000", "110541.625000", "110543.625000", "110545.625000", "110547.625000", "110549.625000", "110551.625000", "110553.625000", "110555.625000", "110557.625000", "110559.625000", "110601.625000", "110603.625000", "110605.625000", "110607.625000", "110609.625000", "110611.625000", "110613.627500", "110615.627500", "110617.627500", "110619.627500", "110621.627500", "110623.627500", "110625.627500", "110627.627500", "110629.627500", "110631.627500", "110633.627500", "110635.627500", "110637.627500", "110639.627500", "110641.627500", "110643.627500", "110645.627500", "110647.627500", "110649.627500", "110651.627500", "110653.627500", "110655.627500", "110657.627500"],
      "ContentTime": ["105731.842000", "105732.835000", "105732.839000", "105733.836000", "105733.840000", "105734.834000", "105736.835000", "105738.835000", "105740.836000", "105742.836000", "105744.836000", "105746.836000", "105748.836000", "105750.836000", "105752.836000", "105754.836000", "105756.837000", "105758.836000", "105800.835000", "105802.836000", "105804.836000", "105806.836000", "105808.836000", "105810.836000", "105812.836000", "105814.835000", "105816.836000", "105818.836000", "105820.836000", "105822.836000", "105824.836000", "105826.836000", "105828.836000", "105830.836000", "105832.836000", "105834.836000", "105836.835000", "105838.836000", "105840.836000", "105842.835000", "105844.836000", "105846.837000", "105848.836000", "105850.835000", "105852.836000", "105854.836000", "105856.836000", "105858.836000", "105900.836000", "105902.836000", "105904.836000", "105906.836000", "105908.836000", "105910.835000", "105912.836000", "105914.836000", "105916.836000", "105918.836000", "105920.836000", "105922.836000", "105924.836000", "105926.836000", "105928.836000", "105930.837000", "105932.836000", "105934.836000", "105936.836000", "105938.836000", "105940.836000", "105942.836000", "105944.835000", "105946.836000", "105948.836000", "105950.836000", "105952.836000", "105954.836000", "105956.836000", "105958.836000", "110000.834000", "110002.836000", "110004.836000", "110006.836000", "110008.836000", "110010.836000", "110012.836000", "110014.836000", "110016.836000", "110018.836000", "110020.834000", "110022.836000", "110024.836000", "110026.836000", "110028.836000", "110030.836000", "110032.836000", "110034.836000", "110036.836000", "110038.836000", "110040.836000", "110042.836000", "110044.837000", "110046.836000", "110048.837000", "110050.836000", "110052.836000", "110054.836000", "110056.836000", "110058.836000", "110100.836000", "110102.836000", "110104.837000", "110106.836000", "110108.836000", "110110.836000", "110112.836000", "110114.836000", "110116.836000", "110118.836000", "110120.836000", "110122.836000", "110124.836000", "110126.836000", "110128.836000", "110130.835000", "110132.836000", "110134.835000", "110136.836000", "110138.836000", "110140.836000", "110142.836000", "110144.836000", "110146.837000", "110148.846000", "110150.836000", "110152.836000", "110154.836000", "110156.836000", "110158.836000", "110200.836000", "110202.836000", "110204.836000", "110206.836000", "110208.836000", "110210.836000", "110212.836000", "110214.836000", "110216.836000", "110218.836000", "110220.838000", "110222.840000", "110224.837000", "110226.837000", "110228.836000", "110230.836000", "110232.836000", "110234.834000", "110236.836000", "110238.836000", "110240.835000", "110242.836000", "110244.837000", "110246.836000", "110248.836000", "110250.836000", "110252.836000", "110254.836000", "110256.836000", "110258.837000", "110300.836000", "110302.836000", "110304.836000", "110306.856000", "110308.836000", "110310.836000", "110312.836000", "110314.836000", "110316.836000", "110318.836000", "110320.836000", "110322.836000", "110324.836000", "110326.836000", "110328.835000", "110330.836000", "110332.836000", "110334.836000", "110336.836000", "110338.834000", "110340.836000", "110342.836000", "110344.836000", "110346.836000", "110348.836000", "110350.835000", "110352.836000", "110354.836000", "110356.836000", "110358.836000", "110400.836000", "110402.836000", "110404.836000", "110406.836000", "110408.836000", "110410.836000", "110412.837000", "110414.836000", "110416.836000", "110418.836000", "110420.836000", "110422.836000", "110424.837000", "110426.836000", "110428.836000", "110430.836000", "110432.836000", "110434.836000", "110436.836000", "110438.836000", "110440.836000", "110442.836000", "110444.837000", "110446.836000", "110448.836000", "110450.836000", "110452.836000", "110454.836000", "110456.836000", "110458.836000", "110500.835000", "110502.836000", "110504.836000", "110506.836000", "110508.836000", "110510.836000", "110512.836000", "110514.837000", "110516.836000", "110518.836000", "110520.836000", "110522.836000", "110524.835000", "110526.836000", "110528.836000", "110530.836000", "110532.836000", "110534.836000", "110536.836000", "110538.836000", "110540.836000", "110542.836000", "110544.837000", "110546.836000", "110548.836000", "110550.836000", "110552.834000", "110554.836000", "110556.836000", "110558.836000", "110600.836000", "110602.837000", "110604.835000", "110606.836000", "110608.836000", "110610.835000", "110612.836000", "110614.836000", "110616.836000", "110618.835000", "110620.836000", "110622.836000", "110624.836000", "110626.836000", "110628.836000", "110630.836000", "110632.836000", "110634.836000", "110636.836000", "110638.836000", "110640.836000", "110642.835000", "110644.836000", "110646.836000", "110648.836000", "110650.836000", "110652.836000", "110654.836000", "110656.836000", "110658.836000", "110700.338000"],
      "InstanceCreationTime": ["105731.842000", "105732.835000", "105732.839000", "105733.836000", "105733.840000", "105734.834000", "105736.835000", "105738.835000", "105740.836000", "105742.836000", "105744.836000", "105746.836000", "105748.836000", "105750.836000", "105752.836000", "105754.836000", "105756.837000", "105758.836000", "105800.835000", "105802.836000", "105804.836000", "105806.836000", "105808.836000", "105810.836000", "105812.836000", "105814.835000", "105816.836000", "105818.836000", "105820.836000", "105822.836000", "105824.836000", "105826.836000", "105828.836000", "105830.836000", "105832.836000", "105834.836000", "105836.835000", "105838.836000", "105840.836000", "105842.835000", "105844.836000", "105846.837000", "105848.836000", "105850.835000", "105852.836000", "105854.836000", "105856.836000", "105858.836000", "105900.836000", "105902.836000", "105904.836000", "105906.836000", "105908.836000", "105910.835000", "105912.836000", "105914.836000", "105916.836000", "105918.836000", "105920.836000", "105922.836000", "105924.836000", "105926.836000", "105928.836000", "105930.837000", "105932.836000", "105934.836000", "105936.836000", "105938.836000", "105940.836000", "105942.836000", "105944.835000", "105946.836000", "105948.836000", "105950.836000", "105952.836000", "105954.836000", "105956.836000", "105958.836000", "110000.834000", "110002.836000", "110004.836000", "110006.836000", "110008.836000", "110010.836000", "110012.836000", "110014.836000", "110016.836000", "110018.836000", "110020.834000", "110022.836000", "110024.836000", "110026.836000", "110028.836000", "110030.836000", "110032.836000", "110034.836000", "110036.836000", "110038.836000", "110040.836000", "110042.836000", "110044.837000", "110046.836000", "110048.837000", "110050.836000", "110052.836000", "110054.836000", "110056.836000", "110058.836000", "110100.836000", "110102.836000", "110104.837000", "110106.836000", "110108.836000", "110110.836000", "110112.836000", "110114.836000", "110116.836000", "110118.836000", "110120.836000", "110122.836000", "110124.836000", "110126.836000", "110128.836000", "110130.835000", "110132.836000", "110134.835000", "110136.836000", "110138.836000", "110140.836000", "110142.836000", "110144.836000", "110146.837000", "110148.846000", "110150.836000", "110152.836000", "110154.836000", "110156.836000", "110158.836000", "110200.836000", "110202.836000", "110204.836000", "110206.836000", "110208.836000", "110210.836000", "110212.836000", "110214.836000", "110216.836000", "110218.836000", "110220.838000", "110222.840000", "110224.837000", "110226.837000", "110228.836000", "110230.836000", "110232.836000", "110234.834000", "110236.836000", "110238.836000", "110240.835000", "110242.836000", "110244.837000", "110246.836000", "110248.836000", "110250.836000", "110252.836000", "110254.836000", "110256.836000", "110258.837000", "110300.836000", "110302.836000", "110304.836000", "110306.856000", "110308.836000", "110310.836000", "110312.836000", "110314.836000", "110316.836000", "110318.836000", "110320.836000", "110322.836000", "110324.836000", "110326.836000", "110328.835000", "110330.836000", "110332.836000", "110334.836000", "110336.836000", "110338.834000", "110340.836000", "110342.836000", "110344.836000", "110346.836000", "110348.836000", "110350.835000", "110352.836000", "110354.836000", "110356.836000", "110358.836000", "110400.836000", "110402.836000", "110404.836000", "110406.836000", "110408.836000", "110410.836000", "110412.837000", "110414.836000", "110416.836000", "110418.836000", "110420.836000", "110422.836000", "110424.837000", "110426.836000", "110428.836000", "110430.836000", "110432.836000", "110434.836000", "110436.836000", "110438.836000", "110440.836000", "110442.836000", "110444.837000", "110446.836000", "110448.836000", "110450.836000", "110452.836000", "110454.836000", "110456.836000", "110458.836000", "110500.835000", "110502.836000", "110504.836000", "110506.836000", "110508.836000", "110510.836000", "110512.836000", "110514.837000", "110516.836000", "110518.836000", "110520.836000", "110522.836000", "110524.835000", "110526.836000", "110528.836000", "110530.836000", "110532.836000", "110534.836000", "110536.836000", "110538.836000", "110540.836000", "110542.836000", "110544.837000", "110546.836000", "110548.836000", "110550.836000", "110552.834000", "110554.836000", "110556.836000", "110558.836000", "110600.836000", "110602.837000", "110604.835000", "110606.836000", "110608.836000", "110610.835000", "110612.836000", "110614.836000", "110616.836000", "110618.835000", "110620.836000", "110622.836000", "110624.836000", "110626.836000", "110628.836000", "110630.836000", "110632.836000", "110634.836000", "110636.836000", "110638.836000", "110640.836000", "110642.835000", "110644.836000", "110646.836000", "110648.836000", "110650.836000", "110652.836000", "110654.836000", "110656.836000", "110658.836000", "110700.338000"],
      "InstanceNumber": [1, 2, 3, 4, 5, 6, 7, 8, 9, 10, 11, 12, 13, 14, 15, 16, 17, 18, 19, 20, 21, 22, 23, 24, 25, 26, 27, 28, 29, 30, 31, 32, 33, 34, 35, 36, 37, 38, 39, 40, 41, 42, 43, 44, 45, 46, 47, 48, 49, 50, 51, 52, 53, 54, 55, 56, 57, 58, 59, 60, 61, 62, 63, 64, 65, 66, 67, 68, 69, 70, 71, 72, 73, 74, 75, 76, 77, 78, 79, 80, 81, 82, 83, 84, 85, 86, 87, 88, 89, 90, 91, 92, 93, 94, 95, 96, 97, 98, 99, 100, 101, 102, 103, 104, 105, 106, 107, 108, 109, 110, 111, 112, 113, 114, 115, 116, 117, 118, 119, 120, 121, 122, 123, 124, 125, 126, 127, 128, 129, 130, 131, 132, 133, 134, 135, 136, 137, 138, 139, 140, 141, 142, 143, 144, 145, 146, 147, 148, 149, 150, 151, 152, 153, 154, 155, 156, 157, 158, 159, 160, 161, 162, 163, 164, 165, 166, 167, 168, 169, 170, 171, 172, 173, 174, 175, 176, 177, 178, 179, 180, 181, 182, 183, 184, 185, 186, 187, 188, 189, 190, 191, 192, 193, 194, 195, 196, 197, 198, 199, 200, 201, 202, 203, 204, 205, 206, 207, 208, 209, 210, 211, 212, 213, 214, 215, 216, 217, 218, 219, 220, 221, 222, 223, 224, 225, 226, 227, 228, 229, 230, 231, 232, 233, 234, 235, 236, 237, 238, 239, 240, 241, 242, 243, 244, 245, 246, 247, 248, 249, 250, 251, 252, 253, 254, 255, 256, 257, 258, 259, 260, 261, 262, 263, 264, 265, 266, 267, 268, 269, 270, 271, 272, 273, 274, 275, 276, 277, 278, 279, 280, 281, 282, 283, 284, 285, 286, 287, 288, 289],
      "WindowCenter": [15138.0, 15117.0, 15118.0, 15100.0, 15088.0, 15092.0, 15103.0, 15098.0, 15103.0, 15093.0, 15100.0, 15108.0, 15088.0, 15085.0, 15078.0, 15076.0, 15089.0, 15070.0, 15070.0, 15074.0, 15082.0, 15081.0, 15097.0, 15098.0, 15094.0, 15071.0, 15078.0, 15070.0, 15076.0, 15076.0, 15046.0, 15052.0, 15061.0, 15069.0, 15073.0, 15082.0, 15080.0, 15080.0, 15086.0, 15090.0, 15084.0, 15084.0, 15075.0, 15078.0, 15080.0, 15071.0, 15074.0, 15080.0, 15076.0, 15084.0, 15078.0, 15083.0, 15077.0, 15068.0, 15077.0, 15085.0, 15077.0, 15074.0, 15075.0, 15070.0, 15063.0, 15062.0, 15068.0, 15082.0, 15084.0, 15087.0, 15073.0, 15041.0, 15076.0, 15085.0, 15094.0, 15082.0, 15072.0, 15057.0, 15065.0, 15086.0, 15076.0, 15077.0, 15090.0, 15076.0, 15092.0, 15089.0, 15084.0, 15084.0, 15079.0, 15082.0, 15087.0, 15084.0, 15084.0, 15094.0, 15090.0, 15078.0, 15077.0, 15090.0, 15079.0, 15077.0, 15081.0, 15077.0, 15080.0, 15074.0, 15070.0, 15069.0, 15073.0, 15071.0, 15070.0, 15069.0, 15067.0, 15060.0, 15066.0, 15064.0, 15067.0, 15067.0, 15085.0, 15077.0, 15066.0, 15085.0, 15070.0, 15070.0, 15072.0, 15070.0, 15079.0, 15078.0, 15072.0, 15072.0, 15077.0, 15074.0, 15072.0, 15073.0, 15103.0, 15089.0, 15078.0, 15086.0, 15090.0, 15093.0, 15087.0, 15071.0, 15061.0, 15051.0, 15064.0, 15081.0, 15086.0, 15092.0, 15094.0, 15078.0, 15068.0, 15066.0, 15071.0, 15064.0, 15065.0, 15067.0, 15079.0, 15069.0, 15076.0, 15065.0, 15080.0, 15075.0, 15051.0, 15058.0, 15061.0, 15077.0, 15073.0, 15072.0, 15067.0, 15038.0, 15062.0, 15074.0, 15071.0, 15063.0, 15053.0, 15059.0, 15087.0, 15068.0, 15075.0, 15042.0, 15045.0, 15075.0, 15078.0, 15085.0, 15083.0, 15065.0, 15083.0, 15091.0, 15087.0, 14961.0, 15089.0, 15071.0, 15078.0, 15075.0, 15074.0, 15062.0, 15065.0, 15055.0, 15065.0, 15068.0, 15075.0, 15074.0, 15079.0, 15094.0, 15086.0, 15073.0, 15062.0, 15064.0, 15093.0, 15088.0, 15088.0, 15076.0, 15082.0, 15087.0, 15076.0, 15073.0, 15068.0, 15080.0, 15084.0, 15078.0, 15072.0, 15063.0, 15074.0, 15079.0, 15079.0, 15078.0, 15081.0, 15080.0, 15081.0, 15072.0, 15096.0, 15092.0, 15080.0, 15078.0, 15066.0, 15066.0, 15069.0, 15073.0, 15076.0, 15083.0, 15082.0, 15082.0, 15078.0, 15084.0, 15073.0, 15076.0, 15080.0, 15088.0, 15087.0, 15077.0, 15076.0, 15067.0, 15060.0, 15074.0, 15071.0, 15067.0, 15067.0, 15072.0, 15077.0, 15076.0, 15084.0, 15083.0, 15086.0, 15082.0, 15076.0, 15074.0, 15076.0, 15082.0, 15090.0, 15092.0, 15092.0, 15087.0, 15090.0, 15084.0, 15068.0, 15088.0, 15094.0, 15072.0, 15079.0, 15076.0, 15082.0, 15086.0, 15098.0, 15082.0, 15080.0, 15072.0, 15075.0, 15089.0, 15079.0, 15074.0, 15074.0, 15072.0, 15080.0, 15091.0, 15088.0],
      "WindowWidth": [41151.0, 40972.0, 40900.0, 40822.0, 40808.0, 40827.0, 40926.0, 40961.0, 40938.0, 40882.0, 40851.0, 40893.0, 40880.0, 40792.0, 40810.0, 40821.0, 40781.0, 40789.0, 40802.0, 40752.0, 40846.0, 40926.0, 40934.0, 40895.0, 40862.0, 40677.0, 40894.0, 40834.0, 40852.0, 40755.0, 40646.0, 40656.0, 40769.0, 40845.0, 40864.0, 40876.0, 40889.0, 40889.0, 40924.0, 40901.0, 40867.0, 40926.0, 40984.0, 40913.0, 40872.0, 40819.0, 40811.0, 40863.0, 40927.0, 40908.0, 40942.0, 40848.0, 40817.0, 40835.0, 40891.0, 40926.0, 40901.0, 40825.0, 40770.0, 40753.0, 40759.0, 40800.0, 40894.0, 40954.0, 40910.0, 40846.0, 40797.0, 40643.0, 40907.0, 40926.0, 40921.0, 40822.0, 40694.0, 40721.0, 40789.0, 40870.0, 40870.0, 40859.0, 40847.0, 40870.0, 40878.0, 40842.0, 40766.0, 40754.0, 40805.0, 40866.0, 40922.0, 40934.0, 40923.0, 40910.0, 40903.0, 40872.0, 40885.0, 40888.0, 40858.0, 40872.0, 40836.0, 40871.0, 40864.0, 40799.0, 40752.0, 40780.0, 40829.0, 40825.0, 40851.0, 40806.0, 40762.0, 40770.0, 40749.0, 40799.0, 40846.0, 40887.0, 40898.0, 40890.0, 40786.0, 40836.0, 40835.0, 40839.0, 40869.0, 40909.0, 40892.0, 40862.0, 40865.0, 40839.0, 40790.0, 40833.0, 40870.0, 40912.0, 40935.0, 40847.0, 40805.0, 40860.0, 40919.0, 40863.0, 40800.0, 40739.0, 40700.0, 40691.0, 40806.0, 40867.0, 40928.0, 40875.0, 40798.0, 40795.0, 40836.0, 40845.0, 40864.0, 40827.0, 40814.0, 40817.0, 40835.0, 40763.0, 40835.0, 40719.0, 40920.0, 40756.0, 40698.0, 40752.0, 40809.0, 40843.0, 40780.0, 40754.0, 40722.0, 40714.0, 40866.0, 40853.0, 40765.0, 40687.0, 40717.0, 40646.0, 40860.0, 40749.0, 40690.0, 40363.0, 40529.0, 40665.0, 40837.0, 40801.0, 40740.0, 40634.0, 40814.0, 40881.0, 40890.0, 39733.0, 41174.0, 40859.0, 40951.0, 40878.0, 40832.0, 40752.0, 40728.0, 40756.0, 40798.0, 40816.0, 40867.0, 40893.0, 40928.0, 40850.0, 40827.0, 40766.0, 40769.0, 40731.0, 40949.0, 40899.0, 40870.0, 40798.0, 40819.0, 40768.0, 40714.0, 40671.0, 40708.0, 40791.0, 40866.0, 40843.0, 40781.0, 40770.0, 40799.0, 40863.0, 40904.0, 40899.0, 40875.0, 40848.0, 40852.0, 40845.0, 41002.0, 40953.0, 40907.0, 40849.0, 40791.0, 40777.0, 40810.0, 40830.0, 40821.0, 40829.0, 40886.0, 40926.0, 40920.0, 40866.0, 40841.0, 40835.0, 40952.0, 40946.0, 40972.0, 40857.0, 40743.0, 40722.0, 40757.0, 40803.0, 40839.0, 40834.0, 40818.0, 40854.0, 40931.0, 40958.0, 40940.0, 40894.0, 40869.0, 40820.0, 40816.0, 40797.0, 40830.0, 40866.0, 40874.0, 40865.0, 40866.0, 40858.0, 40848.0, 40780.0, 40806.0, 40876.0, 40896.0, 40824.0, 40760.0, 40772.0, 40851.0, 40929.0, 40901.0, 40852.0, 40778.0, 40783.0, 40800.0, 40846.0, 40805.0, 40755.0, 40742.0, 40857.0, 40947.0, 41018.0, 40957.0]
    },
    "slices": {}
  }
}