{
  "AcquisitionMatrixPE": 116,
  "AcquisitionNumber": 1,
  "AcquisitionTime": "14:27:34.547500",
  "BandwidthPerPixelPhaseEncode": 18.539,
  "BaseResolution": 116,
  "BodyPartExamined": "HEAD",
  "ConsistencyInfo": "N4_VD13D_LATEST_20130810",
  "ConversionSoftware": "dcm2niix",
  "ConversionSoftwareVersion": "v1.0.20190410  (JP2:OpenJPEG) (JP-LS:CharLS) GCC5.5.0",
  "DerivedVendorReportedEchoSpacing": 0.000930006,
  "DeviceSerialNumber": "66014",
  "DwellTime": 3e-06,
  "EchoTime": 0.03,
  "EchoTrainLength": 50,
  "EffectiveEchoSpacing": 0.000465003,
  "FlipAngle": 81,
  "ImageComments": "Unaliased_MB3_PE4",
  "ImageOrientationPatientDICOM": [0.999266, -0.031204, 0.0222029, 0.0296575, 0.997321, 0.0668646],
  "ImageType": [
    "ORIGINAL",
    "PRIMARY",
    "M",
    "MB",
    "ND",
    "MOSAIC"
],
  "ImagingFrequency": 123.261,
  "InPlanePhaseEncodingDirectionDICOM": "COL",
  "InstitutionAddress": "Yiheyuan_Road_5_Beijing_Haidian_CN_100871",
  "InstitutionName": "Peking_University",
  "InstitutionalDepartmentName": "Department",
  "MRAcquisitionType": "2D",
  "MagneticFieldStrength": 3,
  "Manufacturer": "Siemens",
  "ManufacturersModelName": "Prisma",
  "Modality": "MR",
  "MultibandAccelerationFactor": 3,
  "ParallelReductionFactorInPlane": 2,
  "PartialFourier": 0.875,
  "PatientPosition": "HFS",
  "PercentPhaseFOV": 100,
  "PhaseEncodingDirection": "j-",
  "PhaseEncodingSteps": 101,
  "PhaseResolution": 1,
  "PixelBandwidth": 1435,
  "ProcedureStepDescription": "Research_Projects_64CH",
  "ProtocolName": "mbep2d_bold_MB3_test2",
  "PulseSequenceDetails": "%CustomerSeq%_cmrr_mbep2d_bold",
  "ReceiveCoilActiveElements": "HC1-6",
  "ReceiveCoilName": "HeadNeck_64",
  "ReconMatrixPE": 116,
  "RefLinesPE": 44,
  "RepetitionTime": 2,
  "SAR": 0.064679,
  "ScanOptions": "PFP_FS",
  "ScanningSequence": "EP",
  "SequenceName": "epfid2d1_116",
  "SequenceVariant": "SK_SS",
  "SeriesDescription": "mbep2d_bold_MB3_test2",
  "SeriesNumber": 7,
  "ShimSetting": [-3449, -2094, -1994, 419, -19, -265, 48, 23],
  "SliceThickness": 1.9,
  "SliceTiming": [0, 0.9075, 1.815, 0.7425, 1.65, 0.5775, 1.485, 0.4125, 1.32, 0.2475, 1.155, 0.0825, 0.99, 1.8975, 0.825, 1.7325, 0.66, 1.5675, 0.495, 1.4025, 0.33, 1.2375, 0.165, 1.0725, 0, 0.9075, 1.815, 0.7425, 1.65, 0.5775, 1.485, 0.4125, 1.32, 0.2475, 1.155, 0.0825, 0.99, 1.8975, 0.825, 1.7325, 0.66, 1.5675, 0.495, 1.4025, 0.33, 1.2375, 0.165, 1.0725, 0, 0.9075, 1.815, 0.7425, 1.65, 0.5775, 1.485, 0.4125, 1.32, 0.2475, 1.155, 0.0825, 0.99, 1.8975, 0.825, 1.7325, 0.66, 1.5675, 0.495, 1.4025, 0.33, 1.2375, 0.165, 1.0725],
  "SoftwareVersions": "syngo_MR_D13D",
  "SpacingBetweenSlices": 1.9,
  "StationName": "AWP66014",
  "TaskName": "retrieval",
  "TotalReadoutTime": 0.0534753,
  "TxRefAmp": 231.705,
  "WipMemBlock": "9e9137fa-1381-4595-a146-e9a682d42972||Sequence: vd13d/master r/0735857; Nov 19 2014 09:21:40 by eja",
  "dcmmeta_affine": [
    [-1.895160436630249, 0.056247055530548096, 0.04603668674826622, 105.21621704101562],
    [0.059179920703172684, 1.891471266746521, 0.1256984919309616, -104.23115539550781],
    [0.042108893394470215, -0.12681223452091217, 1.8952783346176147, -61.17671203613281],
    [0.0, 0.0, 0.0, 1.0]
],
  "dcmmeta_reorient_transform": [
    [0.0, -1.0, 0.0, 115.0],
    [1.0, 0.0, 0.0, 0.0],
    [0.0, 0.0, 1.0, 0.0],
    [0.0, 0.0, 0.0, 1.0]
],
  "dcmmeta_shape": [116, 116, 72, 289],
  "dcmmeta_slice_dim": 2,
  "dcmmeta_version": 0.6,
  "global": {
    "const": {
      "AcquisitionMatrix": [116, 0, 0, 116],
      "AngioFlag": "N",
      "BitsAllocated": 16,
      "BitsStored": 16,
      "BodyPartExamined": "HEAD",
      "Columns": 1044,
      "EchoNumbers": 1,
      "EchoTime": 30.0,
      "EchoTrainLength": 50,
      "FlipAngle": 81.0,
      "HighBit": 15,
      "ImageOrientationPatient": [0.9992664036625, -0.0312039579441, 0.02220287188706, 0.02965753811837, 0.99732118746512, 0.06686463539067],
      "ImagePositionPatient": [-1017.1377018501, -963.47119983236, -154.13952465681],
      "ImageType": [
        "ORIGINAL",
        "PRIMARY",
        "M",
        "MB",
        "ND",
        "MOSAIC"
],
      "ImagedNucleus": "1H",
      "ImagingFrequency": 123.26057,
      "InPlanePhaseEncodingDirection": "COL",
      "LargestImagePixelValue": 65535,
      "MRAcquisitionType": "2D",
      "MagneticFieldStrength": 3.0,
      "Manufacturer": "SIEMENS",
      "ManufacturerModelName": "Prisma",
      "Modality": "MR",
      "NumberOfAverages": 1.0,
      "NumberOfPhaseEncodingSteps": 101,
      "PercentPhaseFieldOfView": 100.0,
      "PercentSampling": 100.0,
      "PerformedProcedureStepStartTime": "140457.397000",
      "PhotometricInterpretation": "MONOCHROME2",
      "PixelBandwidth": 1435.0,
      "PixelRepresentation": 0,
      "PixelSpacing": [1.8965517282486, 1.8965517282486],
      "ProtocolName": "mbep2d_bold_MB3_test2",
      "RepetitionTime": 2000.0,
      "Rows": 1044,
      "SAR": 0.06467904094067,
      "SamplesPerPixel": 1,
      "ScanOptions": [
        "PFP",
        "FS"
],
      "ScanningSequence": "EP",
      "SequenceName": "epfid2d1_116",
      "SequenceVariant": [
        "SK",
        "SS"
],
      "SeriesDescription": "mbep2d_bold_MB3_test2",
      "SeriesNumber": 7,
      "SeriesTime": "142748.344000",
      "SliceLocation": -65.370945003917,
      "SliceThickness": 1.8999999761581,
      "SmallestImagePixelValue": 0,
      "SoftwareVersions": "syngo MR D13D",
      "SpacingBetweenSlices": 1.8999999148123,
      "SpecificCharacterSet": "ISO_IR 100",
      "StudyID": "1",
      "StudyTime": "140457.322000",
      "TimeOfLastCalibration": ["123723.000000", "123723.000000"],
      "TransmitCoilName": "Body",
      "VariableFlipAngleFlag": "N",
      "WindowCenterWidthExplanation": "Algo1",
      "dBdt": 0.0},
    "slices": {}
  },
  "time": {
    "samples": {
      "AcquisitionNumber": [1, 2, 3, 4, 5, 6, 7, 8, 9, 10, 11, 12, 13, 14, 15, 16, 17, 18, 19, 20, 21, 22, 23, 24, 25, 26, 27, 28, 29, 30, 31, 32, 33, 34, 35, 36, 37, 38, 39, 40, 41, 42, 43, 44, 45, 46, 47, 48, 49, 50, 51, 52, 53, 54, 55, 56, 57, 58, 59, 60, 61, 62, 63, 64, 65, 66, 67, 68, 69, 70, 71, 72, 73, 74, 75, 76, 77, 78, 79, 80, 81, 82, 83, 84, 85, 86, 87, 88, 89, 90, 91, 92, 93, 94, 95, 96, 97, 98, 99, 100, 101, 102, 103, 104, 105, 106, 107, 108, 109, 110, 111, 112, 113, 114, 115, 116, 117, 118, 119, 120, 121, 122, 123, 124, 125, 126, 127, 128, 129, 130, 131, 132, 133, 134, 135, 136, 137, 138, 139, 140, 141, 142, 143, 144, 145, 146, 147, 148, 149, 150, 151, 152, 153, 154, 155, 156, 157, 158, 159, 160, 161, 162, 163, 164, 165, 166, 167, 168, 169, 170, 171, 172, 173, 174, 175, 176, 177, 178, 179, 180, 181, 182, 183, 184, 185, 186, 187, 188, 189, 190, 191, 192, 193, 194, 195, 196, 197, 198, 199, 200, 201, 202, 203, 204, 205, 206, 207, 208, 209, 210, 211, 212, 213, 214, 215, 216, 217, 218, 219, 220, 221, 222, 223, 224, 225, 226, 227, 228, 229, 230, 231, 232, 233, 234, 235, 236, 237, 238, 239, 240, 241, 242, 243, 244, 245, 246, 247, 248, 249, 250, 251, 252, 253, 254, 255, 256, 257, 258, 259, 260, 261, 262, 263, 264, 265, 266, 267, 268, 269, 270, 271, 272, 273, 274, 275, 276, 277, 278, 279, 280, 281, 282, 283, 284, 285, 286, 287, 288, 289],
      "AcquisitionTime": ["142734.547500", "142736.547500", "142738.547500", "142740.547500", "142742.547500", "142744.547500", "142746.547500", "142748.547500", "142750.547500", "142752.547500", "142754.547500", "142756.547500", "142758.547500", "142800.547500", "142802.547500", "142804.547500", "142806.547500", "142808.547500", "142810.547500", "142812.547500", "142814.547500", "142816.547500", "142818.547500", "142820.547500", "142822.547500", "142824.547500", "142826.547500", "142828.547500", "142830.547500", "142832.547500", "142834.547500", "142836.547500", "142838.547500", "142840.547500", "142842.547500", "142844.547500", "142846.547500", "142848.547500", "142850.547500", "142852.547500", "142854.547500", "142856.547500", "142858.547500", "142900.547500", "142902.547500", "142904.547500", "142906.547500", "142908.547500", "142910.547500", "142912.547500", "142914.547500", "142916.547500", "142918.547500", "142920.547500", "142922.547500", "142924.547500", "142926.547500", "142928.547500", "142930.547500", "142932.547500", "142934.547500", "142936.547500", "142938.547500", "142940.547500", "142942.547500", "142944.547500", "142946.547500", "142948.547500", "142950.547500", "142952.547500", "142954.547500", "142956.547500", "142958.547500", "143000.547500", "143002.547500", "143004.547500", "143006.547500", "143008.547500", "143010.547500", "143012.547500", "143014.547500", "143016.547500", "143018.547500", "143020.547500", "143022.547500", "143024.547500", "143026.547500", "143028.547500", "143030.547500", "143032.547500", "143034.547500", "143036.547500", "143038.547500", "143040.547500", "143042.547500", "143044.547500", "143046.547500", "143048.547500", "143050.547500", "143052.547500", "143054.547500", "143056.547500", "143058.547500", "143100.547500", "143102.547500", "143104.547500", "143106.547500", "143108.547500", "143110.547500", "143112.547500", "143114.547500", "143116.547500", "143118.547500", "143120.547500", "143122.547500", "143124.547500", "143126.547500", "143128.547500", "143130.547500", "143132.547500", "143134.547500", "143136.547500", "143138.547500", "143140.547500", "143142.547500", "143144.547500", "143146.547500", "143148.547500", "143150.547500", "143152.547500", "143154.547500", "143156.547500", "143158.547500", "143200.547500", "143202.547500", "143204.547500", "143206.547500", "143208.547500", "143210.547500", "143212.547500", "143214.547500", "143216.547500", "143218.547500", "143220.547500", "143222.547500", "143224.547500", "143226.547500", "143228.547500", "143230.547500", "143232.547500", "143234.547500", "143236.547500", "143238.547500", "143240.547500", "143242.547500", "143244.547500", "143246.547500", "143248.547500", "143250.547500", "143252.547500", "143254.547500", "143256.547500", "143258.547500", "143300.547500", "143302.547500", "143304.547500", "143306.547500", "143308.547500", "143310.547500", "143312.547500", "143314.547500", "143316.547500", "143318.547500", "143320.547500", "143322.547500", "143324.547500", "143326.550000", "143328.550000", "143330.550000", "143332.550000", "143334.550000", "143336.550000", "143338.550000", "143340.550000", "143342.550000", "143344.550000", "143346.550000", "143348.550000", "143350.550000", "143352.550000", "143354.550000", "143356.550000", "143358.550000", "143400.550000", "143402.550000", "143404.550000", "143406.550000", "143408.550000", "143410.550000", "143412.550000", "143414.550000", "143416.550000", "143418.550000", "143420.550000", "143422.550000", "143424.550000", "143426.550000", "143428.550000", "143430.550000", "143432.550000", "143434.550000", "143436.550000", "143438.550000", "143440.550000", "143442.550000", "143444.550000", "143446.550000", "143448.550000", "143450.550000", "143452.550000", "143454.550000", "143456.550000", "143458.550000", "143500.550000", "143502.550000", "143504.550000", "143506.550000", "143508.550000", "143510.550000", "143512.550000", "143514.550000", "143516.550000", "143518.550000", "143520.550000", "143522.550000", "143524.550000", "143526.550000", "143528.550000", "143530.550000", "143532.550000", "143534.550000", "143536.550000", "143538.550000", "143540.550000", "143542.550000", "143544.550000", "143546.550000", "143548.550000", "143550.550000", "143552.550000", "143554.550000", "143556.550000", "143558.550000", "143600.550000", "143602.550000", "143604.550000", "143606.550000", "143608.550000", "143610.550000", "143612.550000", "143614.550000", "143616.550000", "143618.550000", "143620.550000", "143622.550000", "143624.550000", "143626.550000", "143628.550000", "143630.550000", "143632.550000", "143634.550000", "143636.550000", "143638.550000", "143640.550000", "143642.550000", "143644.550000", "143646.550000", "143648.550000", "143650.550000", "143652.550000", "143654.550000", "143656.550000", "143658.550000", "143700.550000", "143702.550000", "143704.550000", "143706.550000", "143708.550000", "143710.550000"],
      "ContentTime": ["142748.349000", "142749.342000", "142749.346000", "142750.843000", "142750.847000", "142752.342000", "142752.346000", "142753.841000", "142755.343000", "142757.343000", "142759.343000", "142801.343000", "142803.343000", "142805.343000", "142807.343000", "142809.342000", "142811.342000", "142813.343000", "142815.343000", "142817.343000", "142819.343000", "142821.343000", "142823.343000", "142825.342000", "142827.342000", "142829.343000", "142831.343000", "142833.344000", "142835.343000", "142837.343000", "142839.343000", "142841.343000", "142843.343000", "142845.342000", "142847.343000", "142849.342000", "142851.342000", "142853.343000", "142855.343000", "142857.343000", "142859.343000", "142901.342000", "142903.342000", "142905.343000", "142907.343000", "142909.343000", "142911.343000", "142913.343000", "142915.343000", "142917.341000", "142919.342000", "142921.343000", "142923.343000", "142925.342000", "142927.342000", "142929.343000", "142931.343000", "142933.343000", "142935.343000", "142937.342000", "142939.343000", "142941.343000", "142943.342000", "142945.341000", "142947.342000", "142949.343000", "142951.343000", "142953.342000", "142955.342000", "142957.343000", "142959.342000", "143001.343000", "143003.342000", "143005.343000", "143007.343000", "143009.343000", "143011.342000", "143013.342000", "143015.343000", "143017.343000", "143019.343000", "143021.343000", "143023.342000", "143025.343000", "143027.343000", "143029.342000", "143031.343000", "143033.343000", "143035.343000", "143037.343000", "143039.342000", "143041.342000", "143043.343000", "143045.343000", "143047.342000", "143049.343000", "143051.342000", "143053.342000", "143055.343000", "143057.343000", "143059.343000", "143101.343000", "143103.343000", "143105.341000", "143107.344000", "143109.343000", "143111.343000", "143113.343000", "143115.343000", "143117.343000", "143119.343000", "143121.342000", "143123.341000", "143125.343000", "143127.342000", "143129.343000", "143131.343000", "143133.343000", "143135.343000", "143137.342000", "143139.342000", "143141.349000", "143143.343000", "143145.343000", "143147.343000", "143149.343000", "143151.342000", "143153.342000", "143155.343000", "143157.342000", "143159.343000", "143201.342000", "143203.343000", "143205.343000", "143207.344000", "143209.343000", "143211.343000", "143213.343000", "143215.342000", "143217.343000", "143219.343000", "143221.343000", "143223.343000", "143225.342000", "143227.343000", "143229.343000", "143231.342000", "143233.342000", "143235.342000", "143237.343000", "143239.343000", "143241.343000", "143243.343000", "143245.343000", "143247.343000", "143249.342000", "143251.343000", "143253.342000", "143255.343000", "143257.343000", "143259.343000", "143301.343000", "143303.343000", "143305.343000", "143307.341000", "143309.343000", "143311.343000", "143313.343000", "143315.343000", "143317.343000", "143319.343000", "143321.343000", "143323.343000", "143325.342000", "143327.343000", "143329.342000", "143331.343000", "143333.343000", "143335.343000", "143337.343000", "143339.343000", "143341.341000", "143343.342000", "143345.343000", "143347.343000", "143349.343000", "143351.342000", "143353.343000", "143355.343000", "143357.343000", "143359.342000", "143401.343000", "143403.343000", "143405.343000", "143407.344000", "143409.342000", "143411.343000", "143413.343000", "143415.343000", "143417.341000", "143419.343000", "143421.343000", "143423.343000", "143425.342000", "143427.342000", "143429.343000", "143431.342000", "143433.343000", "143435.342000", "143437.343000", "143439.343000", "143441.342000", "143443.343000", "143445.342000", "143447.343000", "143449.344000", "143451.342000", "143453.342000", "143455.342000", "143457.343000", "143459.343000", "143501.343000", "143503.343000", "143505.343000", "143507.343000", "143509.341000", "143511.343000", "143513.343000", "143515.343000", "143517.342000", "143519.343000", "143521.343000", "143523.343000", "143525.341000", "143527.341000", "143529.341000", "143531.343000", "143533.343000", "143535.343000", "143537.343000", "143539.343000", "143541.343000", "143543.342000", "143545.342000", "143547.343000", "143549.344000", "143551.343000", "143553.342000", "143555.341000", "143557.343000", "143559.343000", "143601.342000", "143603.342000", "143605.343000", "143607.342000", "143609.343000", "143611.343000", "143613.342000", "143615.343000", "143617.342000", "143619.343000", "143621.342000", "143623.343000", "143625.343000", "143627.344000", "143629.343000", "143631.343000", "143633.343000", "143635.343000", "143637.342000", "143639.343000", "143641.343000", "143643.343000", "143645.343000", "143647.343000", "143649.350000", "143651.342000", "143653.342000", "143655.341000", "143657.343000", "143659.343000", "143701.341000", "143703.343000", "143705.342000", "143707.342000", "143709.343000", "143711.343000", "143713.342000", "143715.243000"],
      "InstanceCreationTime": ["142748.349000", "142749.342000", "142749.346000", "142750.843000", "142750.847000", "142752.342000", "142752.346000", "142753.841000", "142755.343000", "142757.343000", "142759.343000", "142801.343000", "142803.343000", "142805.343000", "142807.343000", "142809.342000", "142811.342000", "142813.343000", "142815.343000", "142817.343000", "142819.343000", "142821.343000", "142823.343000", "142825.342000", "142827.342000", "142829.343000", "142831.343000", "142833.344000", "142835.343000", "142837.343000", "142839.343000", "142841.343000", "142843.343000", "142845.342000", "142847.343000", "142849.342000", "142851.342000", "142853.343000", "142855.343000", "142857.343000", "142859.343000", "142901.342000", "142903.342000", "142905.343000", "142907.343000", "142909.343000", "142911.343000", "142913.343000", "142915.343000", "142917.341000", "142919.342000", "142921.343000", "142923.343000", "142925.342000", "142927.342000", "142929.343000", "142931.343000", "142933.343000", "142935.343000", "142937.342000", "142939.343000", "142941.343000", "142943.342000", "142945.341000", "142947.342000", "142949.343000", "142951.343000", "142953.342000", "142955.342000", "142957.343000", "142959.342000", "143001.343000", "143003.342000", "143005.343000", "143007.343000", "143009.343000", "143011.342000", "143013.342000", "143015.343000", "143017.343000", "143019.343000", "143021.343000", "143023.342000", "143025.343000", "143027.343000", "143029.342000", "143031.343000", "143033.343000", "143035.343000", "143037.343000", "143039.342000", "143041.342000", "143043.343000", "143045.343000", "143047.342000", "143049.343000", "143051.342000", "143053.342000", "143055.343000", "143057.343000", "143059.343000", "143101.343000", "143103.343000", "143105.341000", "143107.344000", "143109.343000", "143111.343000", "143113.343000", "143115.343000", "143117.343000", "143119.343000", "143121.342000", "143123.341000", "143125.343000", "143127.342000", "143129.343000", "143131.343000", "143133.343000", "143135.343000", "143137.342000", "143139.342000", "143141.349000", "143143.343000", "143145.343000", "143147.343000", "143149.343000", "143151.342000", "143153.342000", "143155.343000", "143157.342000", "143159.343000", "143201.342000", "143203.343000", "143205.343000", "143207.344000", "143209.343000", "143211.343000", "143213.343000", "143215.342000", "143217.343000", "143219.343000", "143221.343000", "143223.343000", "143225.342000", "143227.343000", "143229.343000", "143231.342000", "143233.342000", "143235.342000", "143237.343000", "143239.343000", "143241.343000", "143243.343000", "143245.343000", "143247.343000", "143249.342000", "143251.343000", "143253.342000", "143255.343000", "143257.343000", "143259.343000", "143301.343000", "143303.343000", "143305.343000", "143307.341000", "143309.343000", "143311.343000", "143313.343000", "143315.343000", "143317.343000", "143319.343000", "143321.343000", "143323.343000", "143325.342000", "143327.343000", "143329.342000", "143331.343000", "143333.343000", "143335.343000", "143337.343000", "143339.343000", "143341.341000", "143343.342000", "143345.343000", "143347.343000", "143349.343000", "143351.342000", "143353.343000", "143355.343000", "143357.343000", "143359.342000", "143401.343000", "143403.343000", "143405.343000", "143407.344000", "143409.342000", "143411.343000", "143413.343000", "143415.343000", "143417.341000", "143419.343000", "143421.343000", "143423.343000", "143425.342000", "143427.342000", "143429.343000", "143431.342000", "143433.343000", "143435.342000", "143437.343000", "143439.343000", "143441.342000", "143443.343000", "143445.342000", "143447.343000", "143449.344000", "143451.342000", "143453.342000", "143455.342000", "143457.343000", "143459.343000", "143501.343000", "143503.343000", "143505.343000", "143507.343000", "143509.341000", "143511.343000", "143513.343000", "143515.343000", "143517.342000", "143519.343000", "143521.343000", "143523.343000", "143525.341000", "143527.341000", "143529.341000", "143531.343000", "143533.343000", "143535.343000", "143537.343000", "143539.343000", "143541.343000", "143543.342000", "143545.342000", "143547.343000", "143549.344000", "143551.343000", "143553.342000", "143555.341000", "143557.343000", "143559.343000", "143601.342000", "143603.342000", "143605.343000", "143607.342000", "143609.343000", "143611.343000", "143613.342000", "143615.343000", "143617.342000", "143619.343000", "143621.342000", "143623.343000", "143625.343000", "143627.344000", "143629.343000", "143631.343000", "143633.343000", "143635.343000", "143637.342000", "143639.343000", "143641.343000", "143643.343000", "143645.343000", "143647.343000", "143649.350000", "143651.342000", "143653.342000", "143655.341000", "143657.343000", "143659.343000", "143701.341000", "143703.343000", "143705.342000", "143707.342000", "143709.343000", "143711.343000", "143713.342000", "143715.243000"],
      "InstanceNumber": [1, 2, 3, 4, 5, 6, 7, 8, 9, 10, 11, 12, 13, 14, 15, 16, 17, 18, 19, 20, 21, 22, 23, 24, 25, 26, 27, 28, 29, 30, 31, 32, 33, 34, 35, 36, 37, 38, 39, 40, 41, 42, 43, 44, 45, 46, 47, 48, 49, 50, 51, 52, 53, 54, 55, 56, 57, 58, 59, 60, 61, 62, 63, 64, 65, 66, 67, 68, 69, 70, 71, 72, 73, 74, 75, 76, 77, 78, 79, 80, 81, 82, 83, 84, 85, 86, 87, 88, 89, 90, 91, 92, 93, 94, 95, 96, 97, 98, 99, 100, 101, 102, 103, 104, 105, 106, 107, 108, 109, 110, 111, 112, 113, 114, 115, 116, 117, 118, 119, 120, 121, 122, 123, 124, 125, 126, 127, 128, 129, 130, 131, 132, 133, 134, 135, 136, 137, 138, 139, 140, 141, 142, 143, 144, 145, 146, 147, 148, 149, 150, 151, 152, 153, 154, 155, 156, 157, 158, 159, 160, 161, 162, 163, 164, 165, 166, 167, 168, 169, 170, 171, 172, 173, 174, 175, 176, 177, 178, 179, 180, 181, 182, 183, 184, 185, 186, 187, 188, 189, 190, 191, 192, 193, 194, 195, 196, 197, 198, 199, 200, 201, 202, 203, 204, 205, 206, 207, 208, 209, 210, 211, 212, 213, 214, 215, 216, 217, 218, 219, 220, 221, 222, 223, 224, 225, 226, 227, 228, 229, 230, 231, 232, 233, 234, 235, 236, 237, 238, 239, 240, 241, 242, 243, 244, 245, 246, 247, 248, 249, 250, 251, 252, 253, 254, 255, 256, 257, 258, 259, 260, 261, 262, 263, 264, 265, 266, 267, 268, 269, 270, 271, 272, 273, 274, 275, 276, 277, 278, 279, 280, 281, 282, 283, 284, 285, 286, 287, 288, 289],
      "WindowCenter": [18517.0, 18491.0, 18475.0, 18492.0, 18489.0, 18481.0, 18460.0, 18448.0, 18452.0, 18478.0, 18457.0, 18459.0, 18462.0, 18449.0, 18456.0, 18445.0, 18439.0, 18467.0, 18460.0, 18457.0, 18441.0, 18483.0, 18472.0, 18476.0, 18464.0, 18459.0, 18463.0, 18459.0, 18457.0, 18459.0, 18443.0, 18424.0, 18444.0, 18456.0, 18445.0, 18456.0, 18452.0, 18462.0, 18465.0, 18456.0, 18473.0, 18453.0, 18462.0, 18448.0, 18460.0, 18449.0, 18443.0, 18452.0, 18447.0, 18442.0, 18450.0, 18464.0, 18458.0, 18480.0, 18487.0, 18481.0, 18456.0, 18440.0, 18446.0, 18450.0, 18445.0, 18433.0, 18465.0, 18450.0, 18438.0, 18449.0, 18463.0, 18443.0, 18458.0, 18456.0, 18445.0, 18461.0, 18455.0, 18465.0, 18439.0, 18455.0, 18426.0, 18444.0, 18448.0, 18440.0, 18459.0, 18463.0, 18482.0, 18471.0, 18470.0, 18458.0, 18461.0, 18471.0, 18456.0, 18450.0, 18465.0, 18455.0, 18456.0, 18446.0, 18436.0, 18457.0, 18454.0, 18452.0, 18435.0, 18479.0, 18456.0, 18468.0, 18458.0, 18479.0, 18481.0, 18467.0, 18461.0, 18443.0, 18468.0, 18457.0, 18479.0, 18469.0, 18460.0, 18472.0, 18452.0, 18434.0, 18445.0, 18482.0, 18487.0, 18466.0, 18441.0, 18434.0, 18452.0, 18458.0, 18473.0, 18471.0, 18479.0, 18477.0, 18485.0, 18482.0, 18461.0, 18454.0, 18463.0, 18472.0, 18508.0, 18487.0, 18460.0, 18471.0, 18457.0, 18448.0, 18456.0, 18465.0, 18459.0, 18449.0, 18462.0, 18476.0, 18480.0, 18461.0, 18444.0, 18453.0, 18460.0, 18469.0, 18494.0, 18508.0, 18482.0, 18473.0, 18442.0, 18455.0, 18451.0, 18461.0, 18462.0, 18461.0, 18465.0, 18457.0, 18462.0, 18467.0, 18466.0, 18474.0, 18471.0, 18487.0, 18475.0, 18451.0, 18461.0, 18459.0, 18460.0, 18460.0, 18484.0, 18490.0, 18475.0, 18471.0, 18466.0, 18474.0, 18467.0, 18496.0, 18487.0, 18489.0, 18481.0, 18488.0, 18480.0, 18479.0, 18483.0, 18467.0, 18465.0, 18454.0, 18453.0, 18435.0, 18443.0, 18429.0, 18438.0, 18445.0, 18437.0, 18438.0, 18458.0, 18463.0, 18459.0, 18468.0, 18489.0, 18475.0, 18477.0, 18475.0, 18471.0, 18462.0, 18478.0, 18464.0, 18467.0, 18458.0, 18471.0, 18476.0, 18478.0, 18471.0, 18451.0, 18445.0, 18458.0, 18466.0, 18485.0, 18462.0, 18468.0, 18468.0, 18485.0, 18493.0, 18504.0, 18489.0, 18481.0, 18458.0, 18486.0, 18468.0, 18487.0, 18460.0, 18469.0, 18487.0, 18502.0, 18492.0, 18515.0, 18478.0, 18456.0, 18459.0, 18457.0, 18465.0, 18489.0, 18476.0, 18477.0, 18487.0, 18489.0, 18490.0, 18495.0, 18479.0, 18455.0, 18456.0, 18476.0, 18508.0, 18511.0, 18484.0, 18470.0, 18511.0, 18517.0, 18511.0, 18501.0, 18481.0, 18466.0, 18503.0, 18512.0, 18490.0, 18493.0, 18480.0, 18491.0, 18484.0, 18500.0, 18494.0, 18501.0, 18485.0, 18489.0, 18473.0, 18492.0, 18487.0, 18500.0, 18501.0, 18515.0, 18510.0, 18504.0],
      "WindowWidth": [47259.0, 47164.0, 47154.0, 47227.0, 47212.0, 47171.0, 47131.0, 47057.0, 47110.0, 47168.0, 47140.0, 47117.0, 47106.0, 47082.0, 47088.0, 47092.0, 47125.0, 47160.0, 47154.0, 47102.0, 47076.0, 47171.0, 47165.0, 47156.0, 47124.0, 47118.0, 47160.0, 47155.0, 47127.0, 47118.0, 47080.0, 47042.0, 47068.0, 47124.0, 47116.0, 47115.0, 47100.0, 47096.0, 47148.0, 47215.0, 47152.0, 47150.0, 47119.0, 47084.0, 47106.0, 47107.0, 47115.0, 47112.0, 47108.0, 47056.0, 47110.0, 47131.0, 47128.0, 47158.0, 47178.0, 47122.0, 47102.0, 47101.0, 47092.0, 47098.0, 47083.0, 47035.0, 47072.0, 47121.0, 47063.0, 47073.0, 47083.0, 47045.0, 47105.0, 47102.0, 47078.0, 47093.0, 47089.0, 47060.0, 47117.0, 47101.0, 47067.0, 47081.0, 47071.0, 47042.0, 47057.0, 47131.0, 47133.0, 47151.0, 47114.0, 47057.0, 47107.0, 47137.0, 47136.0, 47121.0, 47106.0, 47077.0, 47103.0, 47106.0, 47086.0, 47104.0, 47103.0, 47026.0, 47088.0, 47145.0, 47139.0, 47113.0, 47105.0, 47096.0, 47148.0, 47135.0, 47104.0, 47105.0, 47113.0, 47079.0, 47096.0, 47123.0, 47116.0, 47113.0, 47111.0, 47037.0, 47083.0, 47148.0, 47161.0, 47109.0, 47053.0, 47036.0, 47075.0, 47115.0, 47113.0, 47112.0, 47108.0, 47109.0, 47128.0, 47109.0, 47079.0, 47088.0, 47096.0, 47115.0, 47142.0, 47138.0, 47103.0, 47088.0, 47054.0, 47018.0, 47039.0, 47081.0, 47064.0, 47059.0, 47057.0, 47069.0, 47109.0, 47094.0, 47066.0, 47062.0, 47068.0, 47051.0, 47172.0, 47190.0, 47134.0, 47051.0, 47004.0, 46989.0, 47050.0, 47093.0, 47080.0, 47057.0, 47036.0, 47043.0, 47061.0, 47125.0, 47097.0, 47103.0, 47103.0, 47066.0, 47093.0, 47085.0, 47042.0, 47055.0, 47056.0, 47046.0, 47090.0, 47117.0, 47091.0, 47091.0, 47076.0, 47056.0, 47090.0, 47121.0, 47115.0, 47130.0, 47149.0, 47129.0, 47110.0, 47123.0, 47123.0, 47111.0, 47086.0, 47040.0, 47038.0, 47035.0, 47015.0, 47019.0, 47003.0, 46982.0, 47027.0, 47037.0, 47051.0, 47046.0, 47044.0, 47051.0, 47093.0, 47119.0, 47118.0, 47107.0, 47067.0, 47035.0, 47062.0, 47112.0, 47111.0, 47092.0, 47101.0, 47080.0, 47095.0, 47063.0, 47036.0, 47033.0, 47044.0, 47050.0, 47065.0, 47084.0, 47087.0, 47113.0, 47139.0, 47136.0, 47166.0, 47130.0, 47083.0, 47069.0, 47077.0, 47065.0, 47063.0, 47043.0, 47062.0, 47103.0, 47129.0, 47120.0, 47139.0, 47121.0, 47063.0, 47032.0, 47056.0, 47047.0, 47065.0, 47094.0, 47117.0, 47116.0, 47105.0, 47068.0, 47085.0, 47081.0, 47028.0, 47031.0, 47099.0, 47169.0, 47148.0, 47113.0, 47077.0, 47148.0, 47191.0, 47123.0, 47091.0, 47111.0, 47109.0, 47128.0, 47161.0, 47116.0, 47097.0, 47111.0, 47107.0, 47152.0, 47112.0, 47080.0, 47072.0, 47099.0, 47076.0, 47102.0, 47079.0, 47063.0, 47100.0, 47124.0, 47143.0, 47154.0, 47125.0]
    },
    "slices": {}
  }
}