{
  "AcquisitionMatrixPE": 116,
  "AcquisitionNumber": 1,
  "AcquisitionTime": "14:16:54.492500",
  "BandwidthPerPixelPhaseEncode": 18.539,
  "BaseResolution": 116,
  "BodyPartExamined": "HEAD",
  "ConsistencyInfo": "N4_VD13D_LATEST_20130810",
  "ConversionSoftware": "dcm2niix",
  "ConversionSoftwareVersion": "v1.0.20190410  (JP2:OpenJPEG) (JP-LS:CharLS) GCC5.5.0",
  "DerivedVendorReportedEchoSpacing": 0.000930006,
  "DeviceSerialNumber": "66014",
  "DwellTime": 3e-06,
  "EchoTime": 0.03,
  "EchoTrainLength": 50,
  "EffectiveEchoSpacing": 0.000465003,
  "FlipAngle": 81,
  "ImageComments": "Unaliased_MB3_PE4",
  "ImageOrientationPatientDICOM": [0.999266, -0.031204, 0.0222029, 0.0296575, 0.997321, 0.0668646],
  "ImageType": [
    "ORIGINAL",
    "PRIMARY",
    "M",
    "MB",
    "ND",
    "MOSAIC"
],
  "ImagingFrequency": 123.261,
  "InPlanePhaseEncodingDirectionDICOM": "COL",
  "InstitutionAddress": "Yiheyuan_Road_5_Beijing_Haidian_CN_100871",
  "InstitutionName": "Peking_University",
  "InstitutionalDepartmentName": "Department",
  "MRAcquisitionType": "2D",
  "MagneticFieldStrength": 3,
  "Manufacturer": "Siemens",
  "ManufacturersModelName": "Prisma",
  "Modality": "MR",
  "MultibandAccelerationFactor": 3,
  "ParallelReductionFactorInPlane": 2,
  "PartialFourier": 0.875,
  "PatientPosition": "HFS",
  "PercentPhaseFOV": 100,
  "PhaseEncodingDirection": "j-",
  "PhaseEncodingSteps": 101,
  "PhaseResolution": 1,
  "PixelBandwidth": 1435,
  "ProcedureStepDescription": "Research_Projects_64CH",
  "ProtocolName": "mbep2d_bold_MB3_test1",
  "PulseSequenceDetails": "%CustomerSeq%_cmrr_mbep2d_bold",
  "ReceiveCoilActiveElements": "HC1-6",
  "ReceiveCoilName": "HeadNeck_64",
  "ReconMatrixPE": 116,
  "RefLinesPE": 44,
  "RepetitionTime": 2,
  "SAR": 0.064679,
  "ScanOptions": "PFP_FS",
  "ScanningSequence": "EP",
  "SequenceName": "epfid2d1_116",
  "SequenceVariant": "SK_SS",
  "SeriesDescription": "mbep2d_bold_MB3_test1",
  "SeriesNumber": 6,
  "ShimSetting": [-3449, -2094, -1994, 419, -19, -265, 48, 23],
  "SliceThickness": 1.9,
  "SliceTiming": [0, 0.9075, 1.815, 0.7425, 1.65, 0.5775, 1.485, 0.4125, 1.32, 0.2475, 1.155, 0.0825, 0.99, 1.8975, 0.825, 1.7325, 0.66, 1.5675, 0.495, 1.4025, 0.33, 1.2375, 0.165, 1.0725, 0, 0.9075, 1.815, 0.7425, 1.65, 0.5775, 1.485, 0.4125, 1.32, 0.2475, 1.155, 0.0825, 0.99, 1.8975, 0.825, 1.7325, 0.66, 1.5675, 0.495, 1.4025, 0.33, 1.2375, 0.165, 1.0725, 0, 0.9075, 1.815, 0.7425, 1.65, 0.5775, 1.485, 0.4125, 1.32, 0.2475, 1.155, 0.0825, 0.99, 1.8975, 0.825, 1.7325, 0.66, 1.5675, 0.495, 1.4025, 0.33, 1.2375, 0.165, 1.0725],
  "SoftwareVersions": "syngo_MR_D13D",
  "SpacingBetweenSlices": 1.9,
  "StationName": "AWP66014",
  "TaskName": "retrieval",
  "TotalReadoutTime": 0.0534753,
  "TxRefAmp": 231.705,
  "WipMemBlock": "9c118158-192e-4065-950f-f3a04b90677a||Sequence: vd13d/master r/0735857; Nov 19 2014 09:21:40 by eja",
  "dcmmeta_affine": [
    [-1.895160436630249, 0.056247055530548096, 0.04603668674826622, 105.21621704101562],
    [0.059179920703172684, 1.891471266746521, 0.1256984919309616, -104.23115539550781],
    [0.042108893394470215, -0.12681223452091217, 1.8952783346176147, -61.17671203613281],
    [0.0, 0.0, 0.0, 1.0]
],
  "dcmmeta_reorient_transform": [
    [0.0, -1.0, 0.0, 115.0],
    [1.0, 0.0, 0.0, 0.0],
    [0.0, 0.0, 1.0, 0.0],
    [0.0, 0.0, 0.0, 1.0]
],
  "dcmmeta_shape": [116, 116, 72, 289],
  "dcmmeta_slice_dim": 2,
  "dcmmeta_version": 0.6,
  "global": {
    "const": {
      "AcquisitionMatrix": [116, 0, 0, 116],
      "AngioFlag": "N",
      "BitsAllocated": 16,
      "BitsStored": 16,
      "BodyPartExamined": "HEAD",
      "Columns": 1044,
      "EchoNumbers": 1,
      "EchoTime": 30.0,
      "EchoTrainLength": 50,
      "FlipAngle": 81.0,
      "HighBit": 15,
      "ImageOrientationPatient": [0.9992664036625, -0.0312039579441, 0.02220287188706, 0.02965753811837, 0.99732118746512, 0.06686463539067],
      "ImagePositionPatient": [-1017.1377018501, -963.47119983236, -154.13952465681],
      "ImageType": [
        "ORIGINAL",
        "PRIMARY",
        "M",
        "MB",
        "ND",
        "MOSAIC"
],
      "ImagedNucleus": "1H",
      "ImagingFrequency": 123.260569,
      "InPlanePhaseEncodingDirection": "COL",
      "LargestImagePixelValue": 65535,
      "MRAcquisitionType": "2D",
      "MagneticFieldStrength": 3.0,
      "Manufacturer": "SIEMENS",
      "ManufacturerModelName": "Prisma",
      "Modality": "MR",
      "NumberOfAverages": 1.0,
      "NumberOfPhaseEncodingSteps": 101,
      "PercentPhaseFieldOfView": 100.0,
      "PercentSampling": 100.0,
      "PerformedProcedureStepStartTime": "140457.397000",
      "PhotometricInterpretation": "MONOCHROME2",
      "PixelBandwidth": 1435.0,
      "PixelRepresentation": 0,
      "PixelSpacing": [1.8965517282486, 1.8965517282486],
      "ProtocolName": "mbep2d_bold_MB3_test1",
      "RepetitionTime": 2000.0,
      "Rows": 1044,
      "SAR": 0.06467904094597,
      "SamplesPerPixel": 1,
      "ScanOptions": [
        "PFP",
        "FS"
],
      "ScanningSequence": "EP",
      "SequenceName": "epfid2d1_116",
      "SequenceVariant": [
        "SK",
        "SS"
],
      "SeriesDescription": "mbep2d_bold_MB3_test1",
      "SeriesNumber": 6,
      "SeriesTime": "141708.507000",
      "SliceLocation": -65.370945003917,
      "SliceThickness": 1.8999999761581,
      "SmallestImagePixelValue": 0,
      "SoftwareVersions": "syngo MR D13D",
      "SpacingBetweenSlices": 1.8999999148123,
      "SpecificCharacterSet": "ISO_IR 100",
      "StudyID": "1",
      "StudyTime": "140457.322000",
      "TimeOfLastCalibration": ["123723.000000", "123723.000000"],
      "TransmitCoilName": "Body",
      "VariableFlipAngleFlag": "N",
      "WindowCenterWidthExplanation": "Algo1",
      "dBdt": 0.0},
    "slices": {}
  },
  "time": {
    "samples": {
      "AcquisitionNumber": [1, 2, 3, 4, 5, 6, 7, 8, 9, 10, 11, 12, 13, 14, 15, 16, 17, 18, 19, 20, 21, 22, 23, 24, 25, 26, 27, 28, 29, 30, 31, 32, 33, 34, 35, 36, 37, 38, 39, 40, 41, 42, 43, 44, 45, 46, 47, 48, 49, 50, 51, 52, 53, 54, 55, 56, 57, 58, 59, 60, 61, 62, 63, 64, 65, 66, 67, 68, 69, 70, 71, 72, 73, 74, 75, 76, 77, 78, 79, 80, 81, 82, 83, 84, 85, 86, 87, 88, 89, 90, 91, 92, 93, 94, 95, 96, 97, 98, 99, 100, 101, 102, 103, 104, 105, 106, 107, 108, 109, 110, 111, 112, 113, 114, 115, 116, 117, 118, 119, 120, 121, 122, 123, 124, 125, 126, 127, 128, 129, 130, 131, 132, 133, 134, 135, 136, 137, 138, 139, 140, 141, 142, 143, 144, 145, 146, 147, 148, 149, 150, 151, 152, 153, 154, 155, 156, 157, 158, 159, 160, 161, 162, 163, 164, 165, 166, 167, 168, 169, 170, 171, 172, 173, 174, 175, 176, 177, 178, 179, 180, 181, 182, 183, 184, 185, 186, 187, 188, 189, 190, 191, 192, 193, 194, 195, 196, 197, 198, 199, 200, 201, 202, 203, 204, 205, 206, 207, 208, 209, 210, 211, 212, 213, 214, 215, 216, 217, 218, 219, 220, 221, 222, 223, 224, 225, 226, 227, 228, 229, 230, 231, 232, 233, 234, 235, 236, 237, 238, 239, 240, 241, 242, 243, 244, 245, 246, 247, 248, 249, 250, 251, 252, 253, 254, 255, 256, 257, 258, 259, 260, 261, 262, 263, 264, 265, 266, 267, 268, 269, 270, 271, 272, 273, 274, 275, 276, 277, 278, 279, 280, 281, 282, 283, 284, 285, 286, 287, 288, 289],
      "AcquisitionTime": ["141654.492500", "141656.492500", "141658.492500", "141700.492500", "141702.492500", "141704.492500", "141706.492500", "141708.492500", "141710.492500", "141712.492500", "141714.492500", "141716.492500", "141718.492500", "141720.492500", "141722.492500", "141724.492500", "141726.492500", "141728.492500", "141730.492500", "141732.492500", "141734.492500", "141736.492500", "141738.492500", "141740.492500", "141742.492500", "141744.492500", "141746.492500", "141748.492500", "141750.492500", "141752.492500", "141754.492500", "141756.492500", "141758.492500", "141800.492500", "141802.492500", "141804.492500", "141806.492500", "141808.492500", "141810.492500", "141812.492500", "141814.492500", "141816.495000", "141818.495000", "141820.495000", "141822.495000", "141824.495000", "141826.495000", "141828.495000", "141830.495000", "141832.495000", "141834.495000", "141836.495000", "141838.495000", "141840.495000", "141842.495000", "141844.495000", "141846.495000", "141848.495000", "141850.495000", "141852.495000", "141854.495000", "141856.495000", "141858.495000", "141900.495000", "141902.495000", "141904.495000", "141906.495000", "141908.495000", "141910.495000", "141912.495000", "141914.495000", "141916.495000", "141918.495000", "141920.495000", "141922.495000", "141924.495000", "141926.495000", "141928.495000", "141930.495000", "141932.495000", "141934.495000", "141936.495000", "141938.495000", "141940.495000", "141942.495000", "141944.495000", "141946.495000", "141948.495000", "141950.495000", "141952.495000", "141954.495000", "141956.495000", "141958.495000", "142000.495000", "142002.495000", "142004.495000", "142006.495000", "142008.495000", "142010.495000", "142012.495000", "142014.495000", "142016.495000", "142018.495000", "142020.495000", "142022.495000", "142024.495000", "142026.495000", "142028.495000", "142030.495000", "142032.495000", "142034.495000", "142036.495000", "142038.495000", "142040.495000", "142042.495000", "142044.495000", "142046.495000", "142048.495000", "142050.495000", "142052.495000", "142054.495000", "142056.495000", "142058.495000", "142100.495000", "142102.495000", "142104.495000", "142106.495000", "142108.495000", "142110.495000", "142112.495000", "142114.495000", "142116.495000", "142118.495000", "142120.495000", "142122.495000", "142124.495000", "142126.495000", "142128.495000", "142130.495000", "142132.495000", "142134.495000", "142136.495000", "142138.495000", "142140.495000", "142142.495000", "142144.495000", "142146.495000", "142148.495000", "142150.495000", "142152.495000", "142154.495000", "142156.495000", "142158.495000", "142200.495000", "142202.495000", "142204.495000", "142206.495000", "142208.495000", "142210.495000", "142212.495000", "142214.495000", "142216.495000", "142218.495000", "142220.495000", "142222.495000", "142224.495000", "142226.495000", "142228.495000", "142230.495000", "142232.495000", "142234.495000", "142236.495000", "142238.495000", "142240.495000", "142242.495000", "142244.495000", "142246.495000", "142248.495000", "142250.495000", "142252.495000", "142254.495000", "142256.495000", "142258.495000", "142300.495000", "142302.495000", "142304.495000", "142306.495000", "142308.495000", "142310.495000", "142312.495000", "142314.495000", "142316.495000", "142318.495000", "142320.495000", "142322.495000", "142324.495000", "142326.495000", "142328.495000", "142330.495000", "142332.495000", "142334.495000", "142336.495000", "142338.495000", "142340.495000", "142342.495000", "142344.495000", "142346.495000", "142348.495000", "142350.495000", "142352.495000", "142354.495000", "142356.495000", "142358.495000", "142400.495000", "142402.495000", "142404.495000", "142406.495000", "142408.495000", "142410.495000", "142412.495000", "142414.495000", "142416.495000", "142418.495000", "142420.495000", "142422.495000", "142424.495000", "142426.495000", "142428.495000", "142430.495000", "142432.495000", "142434.495000", "142436.495000", "142438.495000", "142440.495000", "142442.495000", "142444.495000", "142446.495000", "142448.495000", "142450.495000", "142452.495000", "142454.495000", "142456.495000", "142458.495000", "142500.495000", "142502.495000", "142504.495000", "142506.495000", "142508.495000", "142510.495000", "142512.495000", "142514.495000", "142516.495000", "142518.495000", "142520.495000", "142522.495000", "142524.495000", "142526.495000", "142528.495000", "142530.495000", "142532.495000", "142534.495000", "142536.495000", "142538.495000", "142540.495000", "142542.495000", "142544.495000", "142546.495000", "142548.495000", "142550.495000", "142552.495000", "142554.495000", "142556.495000", "142558.495000", "142600.495000", "142602.495000", "142604.495000", "142606.495000", "142608.495000", "142610.495000", "142612.495000", "142614.495000", "142616.495000", "142618.495000", "142620.495000", "142622.495000", "142624.495000", "142626.495000", "142628.495000", "142630.495000"],
      "ContentTime": ["141708.512000", "141709.505000", "141709.509000", "141710.505000", "141711.506000", "141711.510000", "141712.505000", "141713.504000", "141715.505000", "141717.505000", "141719.505000", "141721.505000", "141723.505000", "141725.505000", "141727.506000", "141729.506000", "141731.506000", "141733.505000", "141735.505000", "141737.505000", "141739.506000", "141741.505000", "141743.506000", "141745.506000", "141747.505000", "141749.506000", "141751.506000", "141753.505000", "141755.504000", "141757.505000", "141759.506000", "141801.506000", "141803.506000", "141805.507000", "141807.506000", "141809.505000", "141811.505000", "141813.506000", "141815.506000", "141817.506000", "141819.505000", "141821.507000", "141823.506000", "141825.505000", "141827.505000", "141829.505000", "141831.505000", "141833.505000", "141835.506000", "141837.505000", "141839.505000", "141841.507000", "141843.505000", "141845.506000", "141847.505000", "141849.505000", "141851.505000", "141853.506000", "141855.506000", "141857.506000", "141859.506000", "141901.505000", "141903.505000", "141905.505000", "141907.504000", "141909.507000", "141911.518000", "141913.505000", "141915.506000", "141917.506000", "141919.505000", "141921.504000", "141923.505000", "141925.504000", "141927.505000", "141929.505000", "141931.504000", "141933.506000", "141935.503000", "141937.504000", "141939.610000", "141941.504000", "141943.505000", "141945.505000", "141947.506000", "141949.506000", "141951.505000", "141953.505000", "141955.504000", "141957.505000", "141959.505000", "142001.505000", "142003.506000", "142005.506000", "142007.506000", "142009.506000", "142011.505000", "142013.505000", "142015.505000", "142017.505000", "142019.506000", "142021.506000", "142023.506000", "142025.506000", "142027.506000", "142029.503000", "142031.505000", "142033.504000", "142035.505000", "142037.506000", "142039.506000", "142041.506000", "142043.506000", "142045.505000", "142047.505000", "142049.505000", "142051.505000", "142053.504000", "142055.504000", "142057.505000", "142059.506000", "142101.506000", "142103.503000", "142105.504000", "142107.505000", "142109.505000", "142111.504000", "142113.506000", "142115.505000", "142117.506000", "142119.504000", "142121.505000", "142123.504000", "142125.503000", "142127.504000", "142129.505000", "142131.506000", "142133.505000", "142135.505000", "142137.508000", "142139.506000", "142141.507000", "142143.507000", "142145.504000", "142147.507000", "142149.505000", "142151.505000", "142153.505000", "142155.504000", "142157.504000", "142159.504000", "142201.504000", "142203.504000", "142205.506000", "142207.505000", "142209.507000", "142211.505000", "142213.505000", "142215.504000", "142217.504000", "142219.505000", "142221.504000", "142223.506000", "142225.505000", "142227.505000", "142229.505000", "142231.504000", "142233.505000", "142235.504000", "142237.505000", "142239.505000", "142241.506000", "142243.505000", "142245.506000", "142247.506000", "142249.505000", "142251.505000", "142253.505000", "142255.504000", "142257.506000", "142259.505000", "142301.505000", "142303.506000", "142305.503000", "142307.504000", "142309.505000", "142311.505000", "142313.505000", "142315.505000", "142317.506000", "142319.506000", "142321.506000", "142323.505000", "142325.504000", "142327.505000", "142329.505000", "142331.504000", "142333.506000", "142335.516000", "142337.506000", "142339.506000", "142341.506000", "142343.505000", "142345.504000", "142347.504000", "142349.506000", "142351.507000", "142353.506000", "142355.505000", "142357.506000", "142359.506000", "142401.505000", "142403.505000", "142405.505000", "142407.506000", "142409.505000", "142411.505000", "142413.506000", "142415.505000", "142417.505000", "142419.505000", "142421.505000", "142423.505000", "142425.506000", "142427.505000", "142429.504000", "142431.506000", "142433.505000", "142435.504000", "142437.505000", "142439.504000", "142441.505000", "142443.506000", "142445.506000", "142447.507000", "142449.506000", "142451.505000", "142453.505000", "142455.505000", "142457.505000", "142459.506000", "142501.506000", "142503.506000", "142505.506000", "142507.506000", "142509.505000", "142511.505000", "142513.505000", "142515.503000", "142517.506000", "142519.506000", "142521.507000", "142523.506000", "142525.505000", "142527.505000", "142529.505000", "142531.505000", "142533.505000", "142535.505000", "142537.506000", "142539.506000", "142541.505000", "142543.505000", "142545.505000", "142547.504000", "142549.505000", "142551.504000", "142553.506000", "142555.506000", "142557.506000", "142559.506000", "142601.503000", "142603.505000", "142605.505000", "142607.503000", "142609.505000", "142611.505000", "142613.505000", "142615.506000", "142617.503000", "142619.505000", "142621.505000", "142623.504000", "142625.504000", "142627.506000", "142629.506000", "142631.507000", "142633.506000", "142635.183000"],
      "InstanceCreationTime": ["141708.512000", "141709.505000", "141709.509000", "141710.505000", "141711.506000", "141711.510000", "141712.505000", "141713.504000", "141715.505000", "141717.505000", "141719.505000", "141721.505000", "141723.505000", "141725.505000", "141727.506000", "141729.506000", "141731.506000", "141733.505000", "141735.505000", "141737.505000", "141739.506000", "141741.505000", "141743.506000", "141745.506000", "141747.505000", "141749.506000", "141751.506000", "141753.505000", "141755.504000", "141757.505000", "141759.506000", "141801.506000", "141803.506000", "141805.507000", "141807.506000", "141809.505000", "141811.505000", "141813.506000", "141815.506000", "141817.506000", "141819.505000", "141821.507000", "141823.506000", "141825.505000", "141827.505000", "141829.505000", "141831.505000", "141833.505000", "141835.506000", "141837.505000", "141839.505000", "141841.507000", "141843.505000", "141845.506000", "141847.505000", "141849.505000", "141851.505000", "141853.506000", "141855.506000", "141857.506000", "141859.506000", "141901.505000", "141903.505000", "141905.505000", "141907.504000", "141909.507000", "141911.518000", "141913.505000", "141915.506000", "141917.506000", "141919.505000", "141921.504000", "141923.505000", "141925.504000", "141927.505000", "141929.505000", "141931.504000", "141933.506000", "141935.503000", "141937.504000", "141939.610000", "141941.504000", "141943.505000", "141945.505000", "141947.506000", "141949.506000", "141951.505000", "141953.505000", "141955.504000", "141957.505000", "141959.505000", "142001.505000", "142003.506000", "142005.506000", "142007.506000", "142009.506000", "142011.505000", "142013.505000", "142015.505000", "142017.505000", "142019.506000", "142021.506000", "142023.506000", "142025.506000", "142027.506000", "142029.503000", "142031.505000", "142033.504000", "142035.505000", "142037.506000", "142039.506000", "142041.506000", "142043.506000", "142045.505000", "142047.505000", "142049.505000", "142051.505000", "142053.504000", "142055.504000", "142057.505000", "142059.506000", "142101.506000", "142103.503000", "142105.504000", "142107.505000", "142109.505000", "142111.504000", "142113.506000", "142115.505000", "142117.506000", "142119.504000", "142121.505000", "142123.504000", "142125.503000", "142127.504000", "142129.505000", "142131.506000", "142133.505000", "142135.505000", "142137.508000", "142139.506000", "142141.507000", "142143.507000", "142145.504000", "142147.507000", "142149.505000", "142151.505000", "142153.505000", "142155.504000", "142157.504000", "142159.504000", "142201.504000", "142203.504000", "142205.506000", "142207.505000", "142209.507000", "142211.505000", "142213.505000", "142215.504000", "142217.504000", "142219.505000", "142221.504000", "142223.506000", "142225.505000", "142227.505000", "142229.505000", "142231.504000", "142233.505000", "142235.504000", "142237.505000", "142239.505000", "142241.506000", "142243.505000", "142245.506000", "142247.506000", "142249.505000", "142251.505000", "142253.505000", "142255.504000", "142257.506000", "142259.505000", "142301.505000", "142303.506000", "142305.503000", "142307.504000", "142309.505000", "142311.505000", "142313.505000", "142315.505000", "142317.506000", "142319.506000", "142321.506000", "142323.505000", "142325.504000", "142327.505000", "142329.505000", "142331.504000", "142333.506000", "142335.516000", "142337.506000", "142339.506000", "142341.506000", "142343.505000", "142345.504000", "142347.504000", "142349.506000", "142351.507000", "142353.506000", "142355.505000", "142357.506000", "142359.506000", "142401.505000", "142403.505000", "142405.505000", "142407.506000", "142409.505000", "142411.505000", "142413.506000", "142415.505000", "142417.505000", "142419.505000", "142421.505000", "142423.505000", "142425.506000", "142427.505000", "142429.504000", "142431.506000", "142433.505000", "142435.504000", "142437.505000", "142439.504000", "142441.505000", "142443.506000", "142445.506000", "142447.507000", "142449.506000", "142451.505000", "142453.505000", "142455.505000", "142457.505000", "142459.506000", "142501.506000", "142503.506000", "142505.506000", "142507.506000", "142509.505000", "142511.505000", "142513.505000", "142515.503000", "142517.506000", "142519.506000", "142521.507000", "142523.506000", "142525.505000", "142527.505000", "142529.505000", "142531.505000", "142533.505000", "142535.505000", "142537.506000", "142539.506000", "142541.505000", "142543.505000", "142545.505000", "142547.504000", "142549.505000", "142551.504000", "142553.506000", "142555.506000", "142557.506000", "142559.506000", "142601.503000", "142603.505000", "142605.505000", "142607.503000", "142609.505000", "142611.505000", "142613.505000", "142615.506000", "142617.503000", "142619.505000", "142621.505000", "142623.504000", "142625.504000", "142627.506000", "142629.506000", "142631.507000", "142633.506000", "142635.183000"],
      "InstanceNumber": [1, 2, 3, 4, 5, 6, 7, 8, 9, 10, 11, 12, 13, 14, 15, 16, 17, 18, 19, 20, 21, 22, 23, 24, 25, 26, 27, 28, 29, 30, 31, 32, 33, 34, 35, 36, 37, 38, 39, 40, 41, 42, 43, 44, 45, 46, 47, 48, 49, 50, 51, 52, 53, 54, 55, 56, 57, 58, 59, 60, 61, 62, 63, 64, 65, 66, 67, 68, 69, 70, 71, 72, 73, 74, 75, 76, 77, 78, 79, 80, 81, 82, 83, 84, 85, 86, 87, 88, 89, 90, 91, 92, 93, 94, 95, 96, 97, 98, 99, 100, 101, 102, 103, 104, 105, 106, 107, 108, 109, 110, 111, 112, 113, 114, 115, 116, 117, 118, 119, 120, 121, 122, 123, 124, 125, 126, 127, 128, 129, 130, 131, 132, 133, 134, 135, 136, 137, 138, 139, 140, 141, 142, 143, 144, 145, 146, 147, 148, 149, 150, 151, 152, 153, 154, 155, 156, 157, 158, 159, 160, 161, 162, 163, 164, 165, 166, 167, 168, 169, 170, 171, 172, 173, 174, 175, 176, 177, 178, 179, 180, 181, 182, 183, 184, 185, 186, 187, 188, 189, 190, 191, 192, 193, 194, 195, 196, 197, 198, 199, 200, 201, 202, 203, 204, 205, 206, 207, 208, 209, 210, 211, 212, 213, 214, 215, 216, 217, 218, 219, 220, 221, 222, 223, 224, 225, 226, 227, 228, 229, 230, 231, 232, 233, 234, 235, 236, 237, 238, 239, 240, 241, 242, 243, 244, 245, 246, 247, 248, 249, 250, 251, 252, 253, 254, 255, 256, 257, 258, 259, 260, 261, 262, 263, 264, 265, 266, 267, 268, 269, 270, 271, 272, 273, 274, 275, 276, 277, 278, 279, 280, 281, 282, 283, 284, 285, 286, 287, 288, 289],
      "WindowCenter": [18591.0, 18554.0, 18560.0, 18558.0, 18567.0, 18564.0, 18584.0, 18559.0, 18567.0, 18574.0, 18564.0, 18567.0, 18579.0, 18588.0, 18585.0, 18575.0, 18586.0, 18604.0, 18607.0, 18602.0, 18589.0, 18588.0, 18558.0, 18568.0, 18582.0, 18561.0, 18550.0, 18561.0, 18556.0, 18548.0, 18561.0, 18560.0, 18578.0, 18553.0, 18561.0, 18551.0, 18572.0, 18580.0, 18574.0, 18561.0, 18549.0, 18555.0, 18547.0, 18546.0, 18542.0, 18533.0, 18540.0, 18551.0, 18553.0, 18526.0, 18535.0, 18547.0, 18522.0, 18507.0, 18515.0, 18513.0, 18509.0, 18516.0, 18518.0, 18513.0, 18504.0, 18504.0, 18530.0, 18503.0, 18518.0, 18541.0, 18542.0, 18533.0, 18518.0, 18530.0, 18540.0, 18553.0, 18558.0, 18537.0, 18535.0, 18525.0, 18515.0, 18548.0, 18554.0, 18546.0, 18538.0, 18551.0, 18539.0, 18548.0, 18530.0, 18540.0, 18544.0, 18558.0, 18574.0, 18544.0, 18542.0, 18520.0, 18513.0, 18520.0, 18539.0, 18540.0, 18536.0, 18543.0, 18536.0, 18542.0, 18549.0, 18541.0, 18545.0, 18533.0, 18525.0, 18533.0, 18533.0, 18528.0, 18522.0, 18521.0, 18513.0, 18515.0, 18504.0, 18511.0, 18529.0, 18514.0, 18540.0, 18530.0, 18523.0, 18528.0, 18535.0, 18521.0, 18528.0, 18535.0, 18530.0, 18539.0, 18530.0, 18536.0, 18531.0, 18551.0, 18546.0, 18535.0, 18535.0, 18526.0, 18535.0, 18519.0, 18524.0, 18523.0, 18521.0, 18517.0, 18531.0, 18531.0, 18512.0, 18519.0, 18510.0, 18525.0, 18514.0, 18522.0, 18518.0, 18547.0, 18537.0, 18528.0, 18539.0, 18536.0, 18533.0, 18515.0, 18514.0, 18514.0, 18516.0, 18520.0, 18520.0, 18539.0, 18520.0, 18531.0, 18557.0, 18540.0, 18506.0, 18503.0, 18518.0, 18510.0, 18521.0, 18510.0, 18520.0, 18529.0, 18529.0, 18525.0, 18538.0, 18551.0, 18537.0, 18525.0, 18515.0, 18528.0, 18534.0, 18539.0, 18565.0, 18535.0, 18536.0, 18539.0, 18531.0, 18524.0, 18531.0, 18529.0, 18552.0, 18570.0, 18546.0, 18523.0, 18516.0, 18526.0, 18526.0, 18513.0, 18516.0, 18523.0, 18500.0, 18497.0, 18513.0, 18509.0, 18510.0, 18521.0, 18502.0, 18511.0, 18519.0, 18518.0, 18538.0, 18535.0, 18530.0, 18536.0, 18510.0, 18535.0, 18538.0, 18526.0, 18522.0, 18534.0, 18527.0, 18558.0, 18546.0, 18544.0, 18548.0, 18556.0, 18540.0, 18535.0, 18569.0, 18577.0, 18574.0, 18572.0, 18551.0, 18553.0, 18553.0, 18563.0, 18548.0, 18535.0, 18534.0, 18552.0, 18543.0, 18556.0, 18540.0, 18542.0, 18542.0, 18535.0, 18546.0, 18538.0, 18532.0, 18542.0, 18537.0, 18545.0, 18546.0, 18557.0, 18555.0, 18561.0, 18556.0, 18565.0, 18577.0, 18566.0, 18533.0, 18539.0, 18542.0, 18549.0, 18554.0, 18549.0, 18548.0, 18564.0, 18543.0, 18542.0, 18540.0, 18540.0, 18536.0, 18548.0, 18556.0, 18535.0, 18536.0, 18514.0, 18513.0, 18519.0, 18530.0, 18549.0, 18546.0, 18531.0, 18519.0, 18516.0, 18524.0],
      "WindowWidth": [47534.0, 47460.0, 47500.0, 47511.0, 47480.0, 47455.0, 47469.0, 47476.0, 47494.0, 47495.0, 47465.0, 47481.0, 47552.0, 47520.0, 47530.0, 47535.0, 47530.0, 47596.0, 47623.0, 47591.0, 47582.0, 47555.0, 47510.0, 47518.0, 47516.0, 47475.0, 47477.0, 47483.0, 47481.0, 47488.0, 47485.0, 47485.0, 47485.0, 47490.0, 47434.0, 47478.0, 47519.0, 47524.0, 47544.0, 47495.0, 47450.0, 47480.0, 47462.0, 47424.0, 47409.0, 47413.0, 47419.0, 47453.0, 47430.0, 47384.0, 47416.0, 47409.0, 47355.0, 47360.0, 47365.0, 47349.0, 47384.0, 47387.0, 47338.0, 47361.0, 47356.0, 47341.0, 47337.0, 47341.0, 47354.0, 47447.0, 47448.0, 47377.0, 47356.0, 47363.0, 47372.0, 47420.0, 47396.0, 47354.0, 47342.0, 47359.0, 47365.0, 47414.0, 47445.0, 47400.0, 47419.0, 47437.0, 47380.0, 47390.0, 47388.0, 47345.0, 47410.0, 47482.0, 47466.0, 47420.0, 47345.0, 47315.0, 47324.0, 47378.0, 47393.0, 47407.0, 47379.0, 47348.0, 47405.0, 47420.0, 47412.0, 47394.0, 47372.0, 47341.0, 47371.0, 47412.0, 47387.0, 47385.0, 47342.0, 47316.0, 47348.0, 47335.0, 47330.0, 47360.0, 47336.0, 47325.0, 47357.0, 47385.0, 47367.0, 47373.0, 47340.0, 47342.0, 47361.0, 47390.0, 47373.0, 47368.0, 47338.0, 47317.0, 47376.0, 47425.0, 47386.0, 47366.0, 47316.0, 47296.0, 47304.0, 47341.0, 47316.0, 47316.0, 47266.0, 47263.0, 47324.0, 47323.0, 47296.0, 47291.0, 47285.0, 47270.0, 47301.0, 47306.0, 47316.0, 47350.0, 47357.0, 47312.0, 47306.0, 47351.0, 47313.0, 47299.0, 47274.0, 47250.0, 47277.0, 47291.0, 47316.0, 47306.0, 47294.0, 47302.0, 47358.0, 47354.0, 47241.0, 47242.0, 47241.0, 47247.0, 47268.0, 47270.0, 47251.0, 47298.0, 47287.0, 47285.0, 47332.0, 47350.0, 47277.0, 47281.0, 47251.0, 47259.0, 47316.0, 47355.0, 47349.0, 47327.0, 47293.0, 47294.0, 47362.0, 47343.0, 47311.0, 47337.0, 47381.0, 47392.0, 47360.0, 47290.0, 47263.0, 47273.0, 47272.0, 47250.0, 47299.0, 47304.0, 47250.0, 47224.0, 47224.0, 47210.0, 47248.0, 47279.0, 47263.0, 47258.0, 47242.0, 47254.0, 47269.0, 47326.0, 47274.0, 47266.0, 47285.0, 47253.0, 47305.0, 47293.0, 47268.0, 47264.0, 47274.0, 47285.0, 47361.0, 47369.0, 47360.0, 47354.0, 47319.0, 47304.0, 47331.0, 47406.0, 47403.0, 47378.0, 47326.0, 47303.0, 47343.0, 47323.0, 47321.0, 47301.0, 47276.0, 47240.0, 47321.0, 47343.0, 47305.0, 47283.0, 47271.0, 47279.0, 47311.0, 47326.0, 47298.0, 47306.0, 47303.0, 47283.0, 47322.0, 47341.0, 47355.0, 47385.0, 47369.0, 47337.0, 47371.0, 47385.0, 47322.0, 47303.0, 47306.0, 47300.0, 47354.0, 47374.0, 47335.0, 47310.0, 47309.0, 47283.0, 47333.0, 47341.0, 47287.0, 47323.0, 47330.0, 47275.0, 47277.0, 47284.0, 47234.0, 47226.0, 47235.0, 47275.0, 47346.0, 47307.0, 47272.0, 47249.0, 47205.0]
    },
    "slices": {}
  }
}