{
  "AcquisitionMatrixPE": 116,
  "AcquisitionNumber": 1,
  "AcquisitionTime": "14:49:15.605000",
  "BandwidthPerPixelPhaseEncode": 18.539,
  "BaseResolution": 116,
  "BodyPartExamined": "HEAD",
  "ConsistencyInfo": "N4_VD13D_LATEST_20130810",
  "ConversionSoftware": "dcm2niix",
  "ConversionSoftwareVersion": "v1.0.20190410  (JP2:OpenJPEG) (JP-LS:CharLS) GCC5.5.0",
  "DerivedVendorReportedEchoSpacing": 0.000930006,
  "DeviceSerialNumber": "66014",
  "DwellTime": 3e-06,
  "EchoTime": 0.03,
  "EchoTrainLength": 50,
  "EffectiveEchoSpacing": 0.000465003,
  "FlipAngle": 81,
  "ImageComments": "Unaliased_MB3_PE4",
  "ImageOrientationPatientDICOM": [0.999266, -0.031204, 0.0222029, 0.0296575, 0.997321, 0.0668646],
  "ImageType": [
    "ORIGINAL",
    "PRIMARY",
    "M",
    "MB",
    "ND",
    "MOSAIC"
],
  "ImagingFrequency": 123.261,
  "InPlanePhaseEncodingDirectionDICOM": "COL",
  "InstitutionAddress": "Yiheyuan_Road_5_Beijing_Haidian_CN_100871",
  "InstitutionName": "Peking_University",
  "InstitutionalDepartmentName": "Department",
  "MRAcquisitionType": "2D",
  "MagneticFieldStrength": 3,
  "Manufacturer": "Siemens",
  "ManufacturersModelName": "Prisma",
  "Modality": "MR",
  "MultibandAccelerationFactor": 3,
  "ParallelReductionFactorInPlane": 2,
  "PartialFourier": 0.875,
  "PatientPosition": "HFS",
  "PercentPhaseFOV": 100,
  "PhaseEncodingDirection": "j-",
  "PhaseEncodingSteps": 101,
  "PhaseResolution": 1,
  "PixelBandwidth": 1435,
  "ProcedureStepDescription": "Research_Projects_64CH",
  "ProtocolName": "mbep2d_bold_MB3_loca1",
  "PulseSequenceDetails": "%CustomerSeq%_cmrr_mbep2d_bold",
  "ReceiveCoilActiveElements": "HC1-6",
  "ReceiveCoilName": "HeadNeck_64",
  "ReconMatrixPE": 116,
  "RefLinesPE": 44,
  "RepetitionTime": 2,
  "SAR": 0.0634718,
  "ScanOptions": "PFP_FS",
  "ScanningSequence": "EP",
  "SequenceName": "epfid2d1_116",
  "SequenceVariant": "SK_SS",
  "SeriesDescription": "mbep2d_bold_MB3_loca1",
  "SeriesNumber": 9,
  "ShimSetting": [-3449, -2094, -1994, 419, -19, -265, 48, 23],
  "SliceThickness": 1.9,
  "SliceTiming": [0, 0.9075, 1.815, 0.7425, 1.65, 0.5775, 1.485, 0.4125, 1.32, 0.2475, 1.155, 0.0825, 0.99, 1.8975, 0.825, 1.7325, 0.66, 1.5675, 0.495, 1.4025, 0.33, 1.2375, 0.165, 1.0725, 0, 0.9075, 1.815, 0.7425, 1.65, 0.5775, 1.485, 0.4125, 1.32, 0.2475, 1.155, 0.0825, 0.99, 1.8975, 0.825, 1.7325, 0.66, 1.5675, 0.495, 1.4025, 0.33, 1.2375, 0.165, 1.0725, 0, 0.9075, 1.815, 0.7425, 1.65, 0.5775, 1.485, 0.4125, 1.32, 0.2475, 1.155, 0.0825, 0.99, 1.8975, 0.825, 1.7325, 0.66, 1.5675, 0.495, 1.4025, 0.33, 1.2375, 0.165, 1.0725],
  "SoftwareVersions": "syngo_MR_D13D",
  "SpacingBetweenSlices": 1.9,
  "StationName": "AWP66014",
  "TaskName": "localizer",
  "TotalReadoutTime": 0.0534753,
  "TxRefAmp": 231.705,
  "WipMemBlock": "d137e3b0-3256-459d-b6d0-78171a9e8640||Sequence: vd13d/master r/0735857; Nov 19 2014 09:21:40 by eja",
  "dcmmeta_affine": [
    [-1.895160436630249, 0.056247055530548096, 0.04603668674826622, 105.21621704101562],
    [0.059179920703172684, 1.891471266746521, 0.1256984919309616, -104.23115539550781],
    [0.042108893394470215, -0.12681223452091217, 1.8952783346176147, -61.17671203613281],
    [0.0, 0.0, 0.0, 1.0]
],
  "dcmmeta_reorient_transform": [
    [0.0, -1.0, 0.0, 115.0],
    [1.0, 0.0, 0.0, 0.0],
    [0.0, 0.0, 1.0, 0.0],
    [0.0, 0.0, 0.0, 1.0]
],
  "dcmmeta_shape": [116, 116, 72, 164],
  "dcmmeta_slice_dim": 2,
  "dcmmeta_version": 0.6,
  "global": {
    "const": {
      "AcquisitionMatrix": [116, 0, 0, 116],
      "AngioFlag": "N",
      "BitsAllocated": 16,
      "BitsStored": 16,
      "BodyPartExamined": "HEAD",
      "Columns": 1044,
      "EchoNumbers": 1,
      "EchoTime": 30.0,
      "EchoTrainLength": 50,
      "FlipAngle": 81.0,
      "HighBit": 15,
      "ImageOrientationPatient": [0.9992664036625, -0.0312039579441, 0.02220287188706, 0.02965753811837, 0.99732118746512, 0.06686463539067],
      "ImagePositionPatient": [-1017.1377018501, -963.47119983236, -154.13952465681],
      "ImageType": [
        "ORIGINAL",
        "PRIMARY",
        "M",
        "MB",
        "ND",
        "MOSAIC"
],
      "ImagedNucleus": "1H",
      "ImagingFrequency": 123.260575,
      "InPlanePhaseEncodingDirection": "COL",
      "LargestImagePixelValue": 65535,
      "MRAcquisitionType": "2D",
      "MagneticFieldStrength": 3.0,
      "Manufacturer": "SIEMENS",
      "ManufacturerModelName": "Prisma",
      "Modality": "MR",
      "NumberOfAverages": 1.0,
      "NumberOfPhaseEncodingSteps": 101,
      "PercentPhaseFieldOfView": 100.0,
      "PercentSampling": 100.0,
      "PerformedProcedureStepStartTime": "140457.397000",
      "PhotometricInterpretation": "MONOCHROME2",
      "PixelBandwidth": 1435.0,
      "PixelRepresentation": 0,
      "PixelSpacing": [1.8965517282486, 1.8965517282486],
      "ProtocolName": "mbep2d_bold_MB3_loca1",
      "RepetitionTime": 2000.0,
      "Rows": 1044,
      "SAR": 0.06347176584437,
      "SamplesPerPixel": 1,
      "ScanOptions": [
        "PFP",
        "FS"
],
      "ScanningSequence": "EP",
      "SequenceName": "epfid2d1_116",
      "SequenceVariant": [
        "SK",
        "SS"
],
      "SeriesDescription": "mbep2d_bold_MB3_loca1",
      "SeriesNumber": 9,
      "SeriesTime": "144929.422000",
      "SliceLocation": -65.370945003917,
      "SliceThickness": 1.8999999761581,
      "SmallestImagePixelValue": 0,
      "SoftwareVersions": "syngo MR D13D",
      "SpacingBetweenSlices": 1.8999999148123,
      "SpecificCharacterSet": "ISO_IR 100",
      "StudyID": "1",
      "StudyTime": "140457.322000",
      "TimeOfLastCalibration": ["123723.000000", "123723.000000"],
      "TransmitCoilName": "Body",
      "VariableFlipAngleFlag": "N",
      "WindowCenterWidthExplanation": "Algo1",
      "dBdt": 0.0},
    "slices": {}
  },
  "time": {
    "samples": {
      "AcquisitionNumber": [1, 2, 3, 4, 5, 6, 7, 8, 9, 10, 11, 12, 13, 14, 15, 16, 17, 18, 19, 20, 21, 22, 23, 24, 25, 26, 27, 28, 29, 30, 31, 32, 33, 34, 35, 36, 37, 38, 39, 40, 41, 42, 43, 44, 45, 46, 47, 48, 49, 50, 51, 52, 53, 54, 55, 56, 57, 58, 59, 60, 61, 62, 63, 64, 65, 66, 67, 68, 69, 70, 71, 72, 73, 74, 75, 76, 77, 78, 79, 80, 81, 82, 83, 84, 85, 86, 87, 88, 89, 90, 91, 92, 93, 94, 95, 96, 97, 98, 99, 100, 101, 102, 103, 104, 105, 106, 107, 108, 109, 110, 111, 112, 113, 114, 115, 116, 117, 118, 119, 120, 121, 122, 123, 124, 125, 126, 127, 128, 129, 130, 131, 132, 133, 134, 135, 136, 137, 138, 139, 140, 141, 142, 143, 144, 145, 146, 147, 148, 149, 150, 151, 152, 153, 154, 155, 156, 157, 158, 159, 160, 161, 162, 163, 164],
      "AcquisitionTime": ["144915.605000", "144917.605000", "144919.605000", "144921.605000", "144923.605000", "144925.605000", "144927.605000", "144929.605000", "144931.605000", "144933.605000", "144935.605000", "144937.605000", "144939.605000", "144941.605000", "144943.605000", "144945.605000", "144947.605000", "144949.605000", "144951.605000", "144953.605000", "144955.605000", "144957.605000", "144959.605000", "145001.605000", "145003.605000", "145005.605000", "145007.605000", "145009.605000", "145011.605000", "145013.605000", "145015.605000", "145017.605000", "145019.605000", "145021.605000", "145023.605000", "145025.605000", "145027.605000", "145029.605000", "145031.605000", "145033.605000", "145035.605000", "145037.605000", "145039.605000", "145041.605000", "145043.605000", "145045.605000", "145047.605000", "145049.605000", "145051.605000", "145053.605000", "145055.605000", "145057.605000", "145059.605000", "145101.605000", "145103.605000", "145105.605000", "145107.605000", "145109.605000", "145111.605000", "145113.605000", "145115.605000", "145117.605000", "145119.605000", "145121.605000", "145123.605000", "145125.605000", "145127.605000", "145129.605000", "145131.605000", "145133.605000", "145135.605000", "145137.605000", "145139.605000", "145141.605000", "145143.605000", "145145.605000", "145147.605000", "145149.605000", "145151.605000", "145153.605000", "145155.605000", "145157.605000", "145159.605000", "145201.605000", "145203.605000", "145205.605000", "145207.605000", "145209.605000", "145211.605000", "145213.605000", "145215.605000", "145217.605000", "145219.605000", "145221.605000", "145223.605000", "145225.605000", "145227.605000", "145229.605000", "145231.605000", "145233.605000", "145235.605000", "145237.605000", "145239.605000", "145241.605000", "145243.605000", "145245.605000", "145247.605000", "145249.605000", "145251.605000", "145253.605000", "145255.605000", "145257.605000", "145259.605000", "145301.605000", "145303.605000", "145305.605000", "145307.605000", "145309.605000", "145311.605000", "145313.605000", "145315.605000", "145317.605000", "145319.605000", "145321.605000", "145323.605000", "145325.605000", "145327.605000", "145329.605000", "145331.605000", "145333.605000", "145335.605000", "145337.605000", "145339.605000", "145341.605000", "145343.605000", "145345.605000", "145347.605000", "145349.605000", "145351.605000", "145353.605000", "145355.605000", "145357.605000", "145359.605000", "145401.605000", "145403.605000", "145405.605000", "145407.605000", "145409.605000", "145411.605000", "145413.605000", "145415.605000", "145417.607500", "145419.607500", "145421.607500", "145423.607500", "145425.607500", "145427.607500", "145429.607500", "145431.607500", "145433.607500", "145435.607500", "145437.607500", "145439.607500", "145441.607500"],
      "ContentTime": ["144929.427000", "144930.420000", "144931.421000", "144931.426000", "144932.921000", "144932.931000", "144932.939000", "144934.921000", "144936.921000", "144938.920000", "144940.920000", "144942.920000", "144944.920000", "144946.922000", "144948.922000", "144950.921000", "144952.919000", "144954.921000", "144956.919000", "144958.920000", "145000.920000", "145002.922000", "145004.941000", "145006.920000", "145008.921000", "145010.922000", "145012.921000", "145014.920000", "145016.920000", "145018.920000", "145020.921000", "145022.921000", "145024.920000", "145026.921000", "145028.921000", "145030.922000", "145032.922000", "145034.921000", "145036.921000", "145038.921000", "145040.921000", "145042.921000", "145044.921000", "145046.921000", "145048.920000", "145050.921000", "145052.918000", "145054.919000", "145056.921000", "145058.922000", "145100.921000", "145102.921000", "145104.921000", "145106.921000", "145108.920000", "145110.919000", "145112.921000", "145114.921000", "145116.923000", "145118.921000", "145120.921000", "145122.921000", "145124.920000", "145126.920000", "145128.920000", "145130.921000", "145132.929000", "145134.921000", "145136.922000", "145138.921000", "145140.920000", "145142.921000", "145144.920000", "145146.918000", "145148.920000", "145150.922000", "145152.920000", "145154.921000", "145156.921000", "145158.920000", "145200.920000", "145202.920000", "145204.920000", "145206.921000", "145208.920000", "145210.921000", "145212.920000", "145214.919000", "145216.921000", "145218.920000", "145220.920000", "145222.920000", "145224.921000", "145226.921000", "145228.921000", "145230.921000", "145232.921000", "145234.921000", "145236.920000", "145238.920000", "145240.921000", "145242.921000", "145244.921000", "145246.921000", "145248.920000", "145250.921000", "145252.920000", "145254.921000", "145256.920000", "145258.921000", "145300.921000", "145302.921000", "145304.921000", "145306.921000", "145308.920000", "145310.920000", "145312.920000", "145314.920000", "145316.921000", "145318.921000", "145320.921000", "145322.920000", "145324.921000", "145326.919000", "145328.920000", "145330.920000", "145332.921000", "145334.921000", "145336.922000", "145338.921000", "145340.921000", "145342.921000", "145344.921000", "145346.920000", "145348.920000", "145350.921000", "145352.921000", "145354.920000", "145356.921000", "145358.921000", "145400.921000", "145402.920000", "145404.920000", "145406.920000", "145408.922000", "145410.920000", "145412.921000", "145414.921000", "145416.921000", "145418.920000", "145420.920000", "145422.920000", "145424.921000", "145426.921000", "145428.921000", "145430.922000", "145432.921000", "145434.921000", "145436.920000", "145438.920000", "145440.920000", "145442.921000", "145444.921000", "145446.410000"],
      "InstanceCreationTime": ["144929.427000", "144930.420000", "144931.421000", "144931.426000", "144932.921000", "144932.931000", "144932.939000", "144934.921000", "144936.921000", "144938.920000", "144940.920000", "144942.920000", "144944.920000", "144946.922000", "144948.922000", "144950.921000", "144952.919000", "144954.921000", "144956.919000", "144958.920000", "145000.920000", "145002.922000", "145004.941000", "145006.920000", "145008.921000", "145010.922000", "145012.921000", "145014.920000", "145016.920000", "145018.920000", "145020.921000", "145022.921000", "145024.920000", "145026.921000", "145028.921000", "145030.922000", "145032.922000", "145034.921000", "145036.921000", "145038.921000", "145040.921000", "145042.921000", "145044.921000", "145046.921000", "145048.920000", "145050.921000", "145052.918000", "145054.919000", "145056.921000", "145058.922000", "145100.921000", "145102.921000", "145104.921000", "145106.921000", "145108.920000", "145110.919000", "145112.921000", "145114.921000", "145116.923000", "145118.921000", "145120.921000", "145122.921000", "145124.920000", "145126.920000", "145128.920000", "145130.921000", "145132.929000", "145134.921000", "145136.922000", "145138.921000", "145140.920000", "145142.921000", "145144.920000", "145146.918000", "145148.920000", "145150.922000", "145152.920000", "145154.921000", "145156.921000", "145158.920000", "145200.920000", "145202.920000", "145204.920000", "145206.921000", "145208.920000", "145210.921000", "145212.920000", "145214.919000", "145216.921000", "145218.920000", "145220.920000", "145222.920000", "145224.921000", "145226.921000", "145228.921000", "145230.921000", "145232.921000", "145234.921000", "145236.920000", "145238.920000", "145240.921000", "145242.921000", "145244.921000", "145246.921000", "145248.920000", "145250.921000", "145252.920000", "145254.921000", "145256.920000", "145258.921000", "145300.921000", "145302.921000", "145304.921000", "145306.921000", "145308.920000", "145310.920000", "145312.920000", "145314.920000", "145316.921000", "145318.921000", "145320.921000", "145322.920000", "145324.921000", "145326.919000", "145328.920000", "145330.920000", "145332.921000", "145334.921000", "145336.922000", "145338.921000", "145340.921000", "145342.921000", "145344.921000", "145346.920000", "145348.920000", "145350.921000", "145352.921000", "145354.920000", "145356.921000", "145358.921000", "145400.921000", "145402.920000", "145404.920000", "145406.920000", "145408.922000", "145410.920000", "145412.921000", "145414.921000", "145416.921000", "145418.920000", "145420.920000", "145422.920000", "145424.921000", "145426.921000", "145428.921000", "145430.922000", "145432.921000", "145434.921000", "145436.920000", "145438.920000", "145440.920000", "145442.921000", "145444.921000", "145446.410000"],
      "InstanceNumber": [1, 2, 3, 4, 5, 6, 7, 8, 9, 10, 11, 12, 13, 14, 15, 16, 17, 18, 19, 20, 21, 22, 23, 24, 25, 26, 27, 28, 29, 30, 31, 32, 33, 34, 35, 36, 37, 38, 39, 40, 41, 42, 43, 44, 45, 46, 47, 48, 49, 50, 51, 52, 53, 54, 55, 56, 57, 58, 59, 60, 61, 62, 63, 64, 65, 66, 67, 68, 69, 70, 71, 72, 73, 74, 75, 76, 77, 78, 79, 80, 81, 82, 83, 84, 85, 86, 87, 88, 89, 90, 91, 92, 93, 94, 95, 96, 97, 98, 99, 100, 101, 102, 103, 104, 105, 106, 107, 108, 109, 110, 111, 112, 113, 114, 115, 116, 117, 118, 119, 120, 121, 122, 123, 124, 125, 126, 127, 128, 129, 130, 131, 132, 133, 134, 135, 136, 137, 138, 139, 140, 141, 142, 143, 144, 145, 146, 147, 148, 149, 150, 151, 152, 153, 154, 155, 156, 157, 158, 159, 160, 161, 162, 163, 164],
      "WindowCenter": [18304.0, 18274.0, 18254.0, 18272.0, 18286.0, 18265.0, 18277.0, 18277.0, 18266.0, 18260.0, 18270.0, 18288.0, 18269.0, 18281.0, 18279.0, 18276.0, 18276.0, 18279.0, 18264.0, 18255.0, 18284.0, 18296.0, 18276.0, 18270.0, 18281.0, 18304.0, 18284.0, 18287.0, 18289.0, 18288.0, 18280.0, 18294.0, 18286.0, 18280.0, 18279.0, 18260.0, 18253.0, 18241.0, 18248.0, 18261.0, 18294.0, 18300.0, 18299.0, 18306.0, 18314.0, 18319.0, 18315.0, 18289.0, 18286.0, 18273.0, 18293.0, 18295.0, 18293.0, 18276.0, 18272.0, 18276.0, 18272.0, 18290.0, 18290.0, 18300.0, 18304.0, 18290.0, 18295.0, 18291.0, 18290.0, 18290.0, 18282.0, 18300.0, 18293.0, 18320.0, 18315.0, 18297.0, 18281.0, 18280.0, 18288.0, 18287.0, 18294.0, 18292.0, 18301.0, 18302.0, 18305.0, 18301.0, 18307.0, 18314.0, 18298.0, 18305.0, 18287.0, 18280.0, 18275.0, 18262.0, 18253.0, 18260.0, 18255.0, 18267.0, 18283.0, 18274.0, 18293.0, 18295.0, 18299.0, 18296.0, 18285.0, 18263.0, 18274.0, 18275.0, 18274.0, 18272.0, 18268.0, 18272.0, 18283.0, 18271.0, 18286.0, 18283.0, 18303.0, 18298.0, 18285.0, 18280.0, 18286.0, 18285.0, 18280.0, 18285.0, 18297.0, 18287.0, 18280.0, 18272.0, 18263.0, 18240.0, 18240.0, 18232.0, 18255.0, 18268.0, 18263.0, 18261.0, 18280.0, 18289.0, 18286.0, 18282.0, 18273.0, 18275.0, 18276.0, 18289.0, 18283.0, 18288.0, 18296.0, 18278.0, 18260.0, 18253.0, 18275.0, 18283.0, 18300.0, 18297.0, 18299.0, 18296.0, 18318.0, 18304.0, 18302.0, 18295.0, 18300.0, 18286.0, 18303.0, 18297.0, 18273.0, 18263.0, 18251.0, 18175.0],
      "WindowWidth": [46723.0, 46625.0, 46661.0, 46674.0, 46673.0, 46672.0, 46669.0, 46645.0, 46636.0, 46669.0, 46689.0, 46692.0, 46702.0, 46687.0, 46685.0, 46682.0, 46668.0, 46632.0, 46610.0, 46640.0, 46714.0, 46735.0, 46720.0, 46704.0, 46726.0, 46730.0, 46714.0, 46690.0, 46694.0, 46692.0, 46700.0, 46699.0, 46679.0, 46674.0, 46659.0, 46618.0, 46572.0, 46549.0, 46557.0, 46607.0, 46658.0, 46677.0, 46701.0, 46721.0, 46778.0, 46770.0, 46727.0, 46654.0, 46638.0, 46643.0, 46657.0, 46672.0, 46655.0, 46641.0, 46629.0, 46617.0, 46654.0, 46669.0, 46680.0, 46677.0, 46691.0, 46694.0, 46685.0, 46657.0, 46668.0, 46655.0, 46674.0, 46665.0, 46722.0, 46729.0, 46724.0, 46670.0, 46620.0, 46594.0, 46628.0, 46679.0, 46697.0, 46709.0, 46727.0, 46679.0, 46695.0, 46680.0, 46694.0, 46699.0, 46688.0, 46655.0, 46665.0, 46647.0, 46628.0, 46604.0, 46546.0, 46526.0, 46573.0, 46572.0, 46619.0, 46652.0, 46680.0, 46684.0, 46688.0, 46661.0, 46626.0, 46620.0, 46615.0, 46618.0, 46604.0, 46615.0, 46611.0, 46603.0, 46598.0, 46588.0, 46625.0, 46638.0, 46663.0, 46660.0, 46651.0, 46633.0, 46639.0, 46651.0, 46658.0, 46651.0, 46633.0, 46627.0, 46634.0, 46637.0, 46579.0, 46549.0, 46522.0, 46528.0, 46534.0, 46583.0, 46605.0, 46594.0, 46608.0, 46626.0, 46647.0, 46646.0, 46627.0, 46628.0, 46628.0, 46627.0, 46634.0, 46640.0, 46658.0, 46631.0, 46577.0, 46549.0, 46590.0, 46634.0, 46648.0, 46670.0, 46672.0, 46697.0, 46688.0, 46690.0, 46677.0, 46685.0, 46673.0, 46649.0, 46636.0, 46694.0, 46625.0, 46553.0, 46518.0, 46063.0]
    },
    "slices": {}
  }
}