{
  "AcquisitionMatrixPE": 116,
  "AcquisitionNumber": 1,
  "AcquisitionTime": "15:02:14.600000",
  "BandwidthPerPixelPhaseEncode": 18.539,
  "BaseResolution": 116,
  "BodyPartExamined": "HEAD",
  "ConsistencyInfo": "N4_VD13D_LATEST_20130810",
  "ConversionSoftware": "dcm2niix",
  "ConversionSoftwareVersion": "v1.0.20190410  (JP2:OpenJPEG) (JP-LS:CharLS) GCC5.5.0",
  "DerivedVendorReportedEchoSpacing": 0.000930006,
  "DeviceSerialNumber": "66014",
  "DwellTime": 3e-06,
  "EchoTime": 0.03,
  "EchoTrainLength": 50,
  "EffectiveEchoSpacing": 0.000465003,
  "FlipAngle": 81,
  "ImageComments": "Unaliased_MB3_PE4",
  "ImageOrientationPatientDICOM": [0.999266, -0.031204, 0.0222029, 0.0296575, 0.997321, 0.0668646],
  "ImageType": [
    "ORIGINAL",
    "PRIMARY",
    "M",
    "MB",
    "ND",
    "MOSAIC"
],
  "ImagingFrequency": 123.261,
  "InPlanePhaseEncodingDirectionDICOM": "COL",
  "InstitutionAddress": "Yiheyuan_Road_5_Beijing_Haidian_CN_100871",
  "InstitutionName": "Peking_University",
  "InstitutionalDepartmentName": "Department",
  "MRAcquisitionType": "2D",
  "MagneticFieldStrength": 3,
  "Manufacturer": "Siemens",
  "ManufacturersModelName": "Prisma",
  "Modality": "MR",
  "MultibandAccelerationFactor": 3,
  "ParallelReductionFactorInPlane": 2,
  "PartialFourier": 0.875,
  "PatientPosition": "HFS",
  "PercentPhaseFOV": 100,
  "PhaseEncodingDirection": "j-",
  "PhaseEncodingSteps": 101,
  "PhaseResolution": 1,
  "PixelBandwidth": 1435,
  "ProcedureStepDescription": "Research_Projects_64CH",
  "ProtocolName": "mbep2d_bold_MB3_loca3",
  "PulseSequenceDetails": "%CustomerSeq%_cmrr_mbep2d_bold",
  "ReceiveCoilActiveElements": "HC1-6",
  "ReceiveCoilName": "HeadNeck_64",
  "ReconMatrixPE": 116,
  "RefLinesPE": 44,
  "RepetitionTime": 2,
  "SAR": 0.0634718,
  "ScanOptions": "PFP_FS",
  "ScanningSequence": "EP",
  "SequenceName": "epfid2d1_116",
  "SequenceVariant": "SK_SS",
  "SeriesDescription": "mbep2d_bold_MB3_loca3",
  "SeriesNumber": 11,
  "ShimSetting": [-3449, -2094, -1994, 419, -19, -265, 48, 23],
  "SliceThickness": 1.9,
  "SliceTiming": [0, 0.9075, 1.815, 0.7425, 1.65, 0.5775, 1.485, 0.4125, 1.32, 0.2475, 1.155, 0.0825, 0.99, 1.8975, 0.825, 1.7325, 0.66, 1.5675, 0.495, 1.4025, 0.33, 1.2375, 0.165, 1.0725, 0, 0.9075, 1.815, 0.7425, 1.65, 0.5775, 1.485, 0.4125, 1.32, 0.2475, 1.155, 0.0825, 0.99, 1.8975, 0.825, 1.7325, 0.66, 1.5675, 0.495, 1.4025, 0.33, 1.2375, 0.165, 1.0725, 0, 0.9075, 1.815, 0.7425, 1.65, 0.5775, 1.485, 0.4125, 1.32, 0.2475, 1.155, 0.0825, 0.99, 1.8975, 0.825, 1.7325, 0.66, 1.5675, 0.495, 1.4025, 0.33, 1.2375, 0.165, 1.0725],
  "SoftwareVersions": "syngo_MR_D13D",
  "SpacingBetweenSlices": 1.9,
  "StationName": "AWP66014",
  "TaskName": "localizer",
  "TotalReadoutTime": 0.0534753,
  "TxRefAmp": 231.705,
  "WipMemBlock": "16477069-b5a0-46f4-a38b-f9ea2d3daa9a||Sequence: vd13d/master r/0735857; Nov 19 2014 09:21:40 by eja",
  "dcmmeta_affine": [
    [-1.895160436630249, 0.056247055530548096, 0.04603668674826622, 105.21621704101562],
    [0.059179920703172684, 1.891471266746521, 0.1256984919309616, -104.23115539550781],
    [0.042108893394470215, -0.12681223452091217, 1.8952783346176147, -61.17671203613281],
    [0.0, 0.0, 0.0, 1.0]
],
  "dcmmeta_reorient_transform": [
    [0.0, -1.0, 0.0, 115.0],
    [1.0, 0.0, 0.0, 0.0],
    [0.0, 0.0, 1.0, 0.0],
    [0.0, 0.0, 0.0, 1.0]
],
  "dcmmeta_shape": [116, 116, 72, 164],
  "dcmmeta_slice_dim": 2,
  "dcmmeta_version": 0.6,
  "global": {
    "const": {
      "AcquisitionMatrix": [116, 0, 0, 116],
      "AngioFlag": "N",
      "BitsAllocated": 16,
      "BitsStored": 16,
      "BodyPartExamined": "HEAD",
      "Columns": 1044,
      "EchoNumbers": 1,
      "EchoTime": 30.0,
      "EchoTrainLength": 50,
      "FlipAngle": 81.0,
      "HighBit": 15,
      "ImageOrientationPatient": [0.9992664036625, -0.0312039579441, 0.02220287188706, 0.02965753811837, 0.99732118746512, 0.06686463539067],
      "ImagePositionPatient": [-1017.1377018501, -963.47119983236, -154.13952465681],
      "ImageType": [
        "ORIGINAL",
        "PRIMARY",
        "M",
        "MB",
        "ND",
        "MOSAIC"
],
      "ImagedNucleus": "1H",
      "ImagingFrequency": 123.26058,
      "InPlanePhaseEncodingDirection": "COL",
      "LargestImagePixelValue": 65535,
      "MRAcquisitionType": "2D",
      "MagneticFieldStrength": 3.0,
      "Manufacturer": "SIEMENS",
      "ManufacturerModelName": "Prisma",
      "Modality": "MR",
      "NumberOfAverages": 1.0,
      "NumberOfPhaseEncodingSteps": 101,
      "PercentPhaseFieldOfView": 100.0,
      "PercentSampling": 100.0,
      "PerformedProcedureStepStartTime": "140457.397000",
      "PhotometricInterpretation": "MONOCHROME2",
      "PixelBandwidth": 1435.0,
      "PixelRepresentation": 0,
      "PixelSpacing": [1.8965517282486, 1.8965517282486],
      "ProtocolName": "mbep2d_bold_MB3_loca3",
      "RepetitionTime": 2000.0,
      "Rows": 1044,
      "SAR": 0.06347176584437,
      "SamplesPerPixel": 1,
      "ScanOptions": [
        "PFP",
        "FS"
],
      "ScanningSequence": "EP",
      "SequenceName": "epfid2d1_116",
      "SequenceVariant": [
        "SK",
        "SS"
],
      "SeriesDescription": "mbep2d_bold_MB3_loca3",
      "SeriesNumber": 11,
      "SeriesTime": "150229.037000",
      "SliceLocation": -65.370945003917,
      "SliceThickness": 1.8999999761581,
      "SmallestImagePixelValue": 0,
      "SoftwareVersions": "syngo MR D13D",
      "SpacingBetweenSlices": 1.8999999148123,
      "SpecificCharacterSet": "ISO_IR 100",
      "StudyID": "1",
      "StudyTime": "140457.322000",
      "TimeOfLastCalibration": ["123723.000000", "123723.000000"],
      "TransmitCoilName": "Body",
      "VariableFlipAngleFlag": "N",
      "WindowCenterWidthExplanation": "Algo1",
      "dBdt": 0.0},
    "slices": {}
  },
  "time": {
    "samples": {
      "AcquisitionNumber": [1, 2, 3, 4, 5, 6, 7, 8, 9, 10, 11, 12, 13, 14, 15, 16, 17, 18, 19, 20, 21, 22, 23, 24, 25, 26, 27, 28, 29, 30, 31, 32, 33, 34, 35, 36, 37, 38, 39, 40, 41, 42, 43, 44, 45, 46, 47, 48, 49, 50, 51, 52, 53, 54, 55, 56, 57, 58, 59, 60, 61, 62, 63, 64, 65, 66, 67, 68, 69, 70, 71, 72, 73, 74, 75, 76, 77, 78, 79, 80, 81, 82, 83, 84, 85, 86, 87, 88, 89, 90, 91, 92, 93, 94, 95, 96, 97, 98, 99, 100, 101, 102, 103, 104, 105, 106, 107, 108, 109, 110, 111, 112, 113, 114, 115, 116, 117, 118, 119, 120, 121, 122, 123, 124, 125, 126, 127, 128, 129, 130, 131, 132, 133, 134, 135, 136, 137, 138, 139, 140, 141, 142, 143, 144, 145, 146, 147, 148, 149, 150, 151, 152, 153, 154, 155, 156, 157, 158, 159, 160, 161, 162, 163, 164],
      "AcquisitionTime": ["150214.600000", "150216.600000", "150218.600000", "150220.600000", "150222.600000", "150224.600000", "150226.600000", "150228.600000", "150230.600000", "150232.600000", "150234.600000", "150236.600000", "150238.600000", "150240.600000", "150242.600000", "150244.600000", "150246.600000", "150248.600000", "150250.600000", "150252.600000", "150254.600000", "150256.600000", "150258.600000", "150300.600000", "150302.600000", "150304.600000", "150306.600000", "150308.600000", "150310.600000", "150312.600000", "150314.600000", "150316.600000", "150318.600000", "150320.600000", "150322.600000", "150324.600000", "150326.600000", "150328.600000", "150330.600000", "150332.600000", "150334.600000", "150336.600000", "150338.600000", "150340.600000", "150342.600000", "150344.600000", "150346.600000", "150348.600000", "150350.600000", "150352.600000", "150354.600000", "150356.600000", "150358.600000", "150400.600000", "150402.600000", "150404.600000", "150406.600000", "150408.600000", "150410.600000", "150412.600000", "150414.600000", "150416.600000", "150418.600000", "150420.600000", "150422.600000", "150424.600000", "150426.600000", "150428.600000", "150430.600000", "150432.600000", "150434.600000", "150436.600000", "150438.600000", "150440.600000", "150442.600000", "150444.600000", "150446.600000", "150448.600000", "150450.600000", "150452.600000", "150454.600000", "150456.600000", "150458.600000", "150500.600000", "150502.600000", "150504.600000", "150506.600000", "150508.600000", "150510.600000", "150512.600000", "150514.600000", "150516.600000", "150518.600000", "150520.600000", "150522.600000", "150524.600000", "150526.600000", "150528.600000", "150530.600000", "150532.600000", "150534.600000", "150536.600000", "150538.600000", "150540.600000", "150542.600000", "150544.600000", "150546.600000", "150548.600000", "150550.600000", "150552.600000", "150554.600000", "150556.600000", "150558.600000", "150600.600000", "150602.600000", "150604.600000", "150606.600000", "150608.600000", "150610.600000", "150612.600000", "150614.600000", "150616.600000", "150618.600000", "150620.600000", "150622.600000", "150624.600000", "150626.600000", "150628.600000", "150630.600000", "150632.600000", "150634.600000", "150636.600000", "150638.600000", "150640.600000", "150642.600000", "150644.600000", "150646.600000", "150648.600000", "150650.600000", "150652.600000", "150654.600000", "150656.600000", "150658.600000", "150700.600000", "150702.600000", "150704.600000", "150706.600000", "150708.600000", "150710.600000", "150712.600000", "150714.600000", "150716.600000", "150718.600000", "150720.600000", "150722.600000", "150724.600000", "150726.600000", "150728.600000", "150730.602500", "150732.602500", "150734.602500", "150736.602500", "150738.602500", "150740.602500"],
      "ContentTime": ["150229.042000", "150230.035000", "150230.040000", "150231.034000", "150231.039000", "150232.035000", "150232.039000", "150233.535000", "150236.036000", "150238.037000", "150240.036000", "150242.037000", "150244.036000", "150246.036000", "150248.035000", "150250.037000", "150252.036000", "150254.037000", "150256.037000", "150258.036000", "150300.037000", "150302.036000", "150304.037000", "150306.034000", "150308.036000", "150309.536000", "150312.036000", "150314.036000", "150316.037000", "150318.036000", "150320.036000", "150321.536000", "150324.036000", "150326.035000", "150328.036000", "150329.536000", "150332.037000", "150334.037000", "150336.036000", "150337.535000", "150340.036000", "150342.036000", "150344.035000", "150346.037000", "150348.037000", "150350.036000", "150352.036000", "150354.036000", "150356.037000", "150358.036000", "150400.036000", "150401.534000", "150404.036000", "150405.535000", "150408.035000", "150410.036000", "150412.037000", "150413.535000", "150416.036000", "150418.036000", "150420.036000", "150422.036000", "150424.036000", "150426.037000", "150428.036000", "150430.037000", "150432.037000", "150433.536000", "150436.036000", "150438.036000", "150440.037000", "150441.535000", "150444.036000", "150446.036000", "150448.037000", "150450.036000", "150452.037000", "150454.037000", "150456.038000", "150458.037000", "150500.037000", "150502.036000", "150504.037000", "150506.037000", "150508.036000", "150510.037000", "150512.037000", "150514.036000", "150516.036000", "150518.036000", "150520.036000", "150521.535000", "150524.037000", "150526.039000", "150528.037000", "150530.037000", "150532.037000", "150533.536000", "150536.035000", "150538.036000", "150540.036000", "150542.036000", "150544.037000", "150545.536000", "150548.037000", "150550.037000", "150552.037000", "150554.036000", "150556.035000", "150558.039000", "150600.036000", "150602.036000", "150604.035000", "150605.535000", "150608.036000", "150610.036000", "150612.037000", "150614.037000", "150616.037000", "150618.038000", "150620.039000", "150622.037000", "150624.036000", "150626.036000", "150628.036000", "150630.038000", "150632.037000", "150634.038000", "150636.036000", "150638.036000", "150640.036000", "150641.536000", "150644.034000", "150646.037000", "150648.036000", "150650.037000", "150652.036000", "150654.038000", "150656.034000", "150657.536000", "150700.036000", "150702.036000", "150703.535000", "150705.536000", "150708.037000", "150710.036000", "150712.038000", "150714.036000", "150716.036000", "150718.036000", "150720.036000", "150722.036000", "150724.037000", "150726.037000", "150728.036000", "150730.036000", "150732.038000", "150734.037000", "150736.036000", "150737.536000", "150739.536000", "150742.037000", "150744.037000", "150745.511000"],
      "InstanceCreationTime": ["150229.042000", "150230.035000", "150230.040000", "150231.034000", "150231.039000", "150232.035000", "150232.039000", "150233.535000", "150236.036000", "150238.037000", "150240.036000", "150242.037000", "150244.036000", "150246.036000", "150248.035000", "150250.037000", "150252.036000", "150254.037000", "150256.037000", "150258.036000", "150300.037000", "150302.036000", "150304.037000", "150306.034000", "150308.036000", "150309.536000", "150312.036000", "150314.036000", "150316.037000", "150318.036000", "150320.036000", "150321.536000", "150324.036000", "150326.035000", "150328.036000", "150329.536000", "150332.037000", "150334.037000", "150336.036000", "150337.535000", "150340.036000", "150342.036000", "150344.035000", "150346.037000", "150348.037000", "150350.036000", "150352.036000", "150354.036000", "150356.037000", "150358.036000", "150400.036000", "150401.534000", "150404.036000", "150405.535000", "150408.035000", "150410.036000", "150412.037000", "150413.535000", "150416.036000", "150418.036000", "150420.036000", "150422.036000", "150424.036000", "150426.037000", "150428.036000", "150430.037000", "150432.037000", "150433.536000", "150436.036000", "150438.036000", "150440.037000", "150441.535000", "150444.036000", "150446.036000", "150448.037000", "150450.036000", "150452.037000", "150454.037000", "150456.038000", "150458.037000", "150500.037000", "150502.036000", "150504.037000", "150506.037000", "150508.036000", "150510.037000", "150512.037000", "150514.036000", "150516.036000", "150518.036000", "150520.036000", "150521.535000", "150524.037000", "150526.039000", "150528.037000", "150530.037000", "150532.037000", "150533.536000", "150536.035000", "150538.036000", "150540.036000", "150542.036000", "150544.037000", "150545.536000", "150548.037000", "150550.037000", "150552.037000", "150554.036000", "150556.035000", "150558.039000", "150600.036000", "150602.036000", "150604.035000", "150605.535000", "150608.036000", "150610.036000", "150612.037000", "150614.037000", "150616.037000", "150618.038000", "150620.039000", "150622.037000", "150624.036000", "150626.036000", "150628.036000", "150630.038000", "150632.037000", "150634.038000", "150636.036000", "150638.036000", "150640.036000", "150641.536000", "150644.034000", "150646.037000", "150648.036000", "150650.037000", "150652.036000", "150654.038000", "150656.034000", "150657.536000", "150700.036000", "150702.036000", "150703.535000", "150705.536000", "150708.037000", "150710.036000", "150712.038000", "150714.036000", "150716.036000", "150718.036000", "150720.036000", "150722.036000", "150724.037000", "150726.037000", "150728.036000", "150730.036000", "150732.038000", "150734.037000", "150736.036000", "150737.536000", "150739.536000", "150742.037000", "150744.037000", "150745.511000"],
      "InstanceNumber": [1, 2, 3, 4, 5, 6, 7, 8, 9, 10, 11, 12, 13, 14, 15, 16, 17, 18, 19, 20, 21, 22, 23, 24, 25, 26, 27, 28, 29, 30, 31, 32, 33, 34, 35, 36, 37, 38, 39, 40, 41, 42, 43, 44, 45, 46, 47, 48, 49, 50, 51, 52, 53, 54, 55, 56, 57, 58, 59, 60, 61, 62, 63, 64, 65, 66, 67, 68, 69, 70, 71, 72, 73, 74, 75, 76, 77, 78, 79, 80, 81, 82, 83, 84, 85, 86, 87, 88, 89, 90, 91, 92, 93, 94, 95, 96, 97, 98, 99, 100, 101, 102, 103, 104, 105, 106, 107, 108, 109, 110, 111, 112, 113, 114, 115, 116, 117, 118, 119, 120, 121, 122, 123, 124, 125, 126, 127, 128, 129, 130, 131, 132, 133, 134, 135, 136, 137, 138, 139, 140, 141, 142, 143, 144, 145, 146, 147, 148, 149, 150, 151, 152, 153, 154, 155, 156, 157, 158, 159, 160, 161, 162, 163, 164],
      "WindowCenter": [18454.0, 18405.0, 18400.0, 18395.0, 18393.0, 18392.0, 18383.0, 18395.0, 18406.0, 18404.0, 18395.0, 18393.0, 18390.0, 18397.0, 18394.0, 18409.0, 18393.0, 18401.0, 18405.0, 18384.0, 18388.0, 18411.0, 18398.0, 18390.0, 18388.0, 18373.0, 18349.0, 18371.0, 18370.0, 18387.0, 18394.0, 18400.0, 18394.0, 18369.0, 18363.0, 18355.0, 18363.0, 18361.0, 18367.0, 18369.0, 18405.0, 18397.0, 18401.0, 18379.0, 18387.0, 18405.0, 18408.0, 18378.0, 18379.0, 18368.0, 18370.0, 18374.0, 18396.0, 18371.0, 18370.0, 18357.0, 18364.0, 18372.0, 18406.0, 18392.0, 18389.0, 18397.0, 18392.0, 18381.0, 18409.0, 18388.0, 18391.0, 18383.0, 18383.0, 18372.0, 18372.0, 18341.0, 18345.0, 18338.0, 18341.0, 18360.0, 18367.0, 18376.0, 18397.0, 18395.0, 18397.0, 18368.0, 18367.0, 18359.0, 18380.0, 18370.0, 18364.0, 18376.0, 18380.0, 18352.0, 18343.0, 18354.0, 18354.0, 18384.0, 18370.0, 18361.0, 18359.0, 18358.0, 18360.0, 18363.0, 18357.0, 18349.0, 18363.0, 18379.0, 18372.0, 18384.0, 18388.0, 18381.0, 18388.0, 18356.0, 18360.0, 18388.0, 18389.0, 18372.0, 18341.0, 18334.0, 18351.0, 18390.0, 18408.0, 18395.0, 18361.0, 18287.0, 18282.0, 18256.0, 18273.0, 18258.0, 18269.0, 18278.0, 18281.0, 18287.0, 18312.0, 18317.0, 18317.0, 18307.0, 18318.0, 18321.0, 18320.0, 18307.0, 18285.0, 18310.0, 18292.0, 18310.0, 18308.0, 18283.0, 18272.0, 18266.0, 18272.0, 18291.0, 18298.0, 18303.0, 18298.0, 18307.0, 18298.0, 18306.0, 18284.0, 18266.0, 18257.0, 18269.0, 18260.0, 18294.0, 18297.0, 18279.0, 18267.0, 18280.0],
      "WindowWidth": [46950.0, 46871.0, 46827.0, 46812.0, 46823.0, 46798.0, 46802.0, 46813.0, 46823.0, 46822.0, 46827.0, 46800.0, 46821.0, 46828.0, 46852.0, 46862.0, 46863.0, 46857.0, 46822.0, 46805.0, 46821.0, 46889.0, 46903.0, 46859.0, 46817.0, 46780.0, 46751.0, 46758.0, 46796.0, 46833.0, 46852.0, 46869.0, 46839.0, 46794.0, 46724.0, 46719.0, 46762.0, 46734.0, 46740.0, 46783.0, 46821.0, 46843.0, 46844.0, 46827.0, 46844.0, 46873.0, 46848.0, 46799.0, 46799.0, 46766.0, 46755.0, 46821.0, 46835.0, 46791.0, 46765.0, 46731.0, 46751.0, 46872.0, 46870.0, 46810.0, 46809.0, 46828.0, 46836.0, 46826.0, 46821.0, 46831.0, 46847.0, 46838.0, 46799.0, 46804.0, 46742.0, 46708.0, 46698.0, 46641.0, 46709.0, 46796.0, 46800.0, 46773.0, 46828.0, 46902.0, 46887.0, 46789.0, 46740.0, 46797.0, 46839.0, 46830.0, 46787.0, 46810.0, 46812.0, 46740.0, 46695.0, 46690.0, 46766.0, 46815.0, 46803.0, 46746.0, 46721.0, 46735.0, 46762.0, 46762.0, 46734.0, 46689.0, 46700.0, 46752.0, 46784.0, 46793.0, 46792.0, 46826.0, 46816.0, 46728.0, 46771.0, 46857.0, 46882.0, 46793.0, 46732.0, 46716.0, 46767.0, 46811.0, 46934.0, 46837.0, 46811.0, 46618.0, 46583.0, 46576.0, 46536.0, 46514.0, 46538.0, 46594.0, 46594.0, 46599.0, 46670.0, 46714.0, 46713.0, 46668.0, 46677.0, 46705.0, 46691.0, 46617.0, 46599.0, 46631.0, 46616.0, 46643.0, 46654.0, 46621.0, 46548.0, 46517.0, 46550.0, 46615.0, 46645.0, 46637.0, 46621.0, 46626.0, 46632.0, 46603.0, 46562.0, 46584.0, 46524.0, 46499.0, 46517.0, 46566.0, 46594.0, 46590.0, 46556.0, 46554.0]
    },
    "slices": {}
  }
}