{
  "AcquisitionMatrixPE": 116,
  "AcquisitionNumber": 1,
  "AcquisitionTime": "11:33:44.097500",
  "BandwidthPerPixelPhaseEncode": 18.539,
  "BaseResolution": 116,
  "BodyPartExamined": "HEAD",
  "ConsistencyInfo": "N4_VD13D_LATEST_20130810",
  "ConversionSoftware": "dcm2niix",
  "ConversionSoftwareVersion": "v1.0.20190410  (JP2:OpenJPEG) (JP-LS:CharLS) GCC5.5.0",
  "DerivedVendorReportedEchoSpacing": 0.000930006,
  "DeviceSerialNumber": "66014",
  "DwellTime": 3e-06,
  "EchoTime": 0.03,
  "EchoTrainLength": 50,
  "EffectiveEchoSpacing": 0.000465003,
  "FlipAngle": 81,
  "ImageComments": "Unaliased_MB3_PE4",
  "ImageOrientationPatientDICOM": [0.999914, -0.00979674, -0.00876986, 0.0087261, 0.993356, -0.114747],
  "ImageType": [
    "ORIGINAL",
    "PRIMARY",
    "M",
    "MB",
    "ND",
    "MOSAIC"
],
  "ImagingFrequency": 123.261,
  "InPlanePhaseEncodingDirectionDICOM": "COL",
  "InstitutionAddress": "Yiheyuan_Road_5_Beijing_Haidian_CN_100871",
  "InstitutionName": "Peking_University",
  "InstitutionalDepartmentName": "Department",
  "MRAcquisitionType": "2D",
  "MagneticFieldStrength": 3,
  "Manufacturer": "Siemens",
  "ManufacturersModelName": "Prisma",
  "Modality": "MR",
  "MultibandAccelerationFactor": 3,
  "ParallelReductionFactorInPlane": 2,
  "PartialFourier": 0.875,
  "PatientPosition": "HFS",
  "PercentPhaseFOV": 100,
  "PhaseEncodingDirection": "j-",
  "PhaseEncodingSteps": 101,
  "PhaseResolution": 1,
  "PixelBandwidth": 1435,
  "ProcedureStepDescription": "Research_Projects_64CH",
  "ProtocolName": "mbep2d_bold_MB3_learn6",
  "PulseSequenceDetails": "%CustomerSeq%_cmrr_mbep2d_bold",
  "ReceiveCoilActiveElements": "HC1-6",
  "ReceiveCoilName": "HeadNeck_64",
  "ReconMatrixPE": 116,
  "RefLinesPE": 44,
  "RepetitionTime": 2,
  "SAR": 0.0644806,
  "ScanOptions": "PFP_FS",
  "ScanningSequence": "EP",
  "SequenceName": "epfid2d1_116",
  "SequenceVariant": "SK_SS",
  "SeriesDescription": "mbep2d_bold_MB3_learn6",
  "SeriesNumber": 11,
  "ShimSetting": [-3462, -2089, -1976, 370, -47, -186, -71, 20],
  "SliceThickness": 1.9,
  "SliceTiming": [0, 0.9075, 1.815, 0.7425, 1.65, 0.5775, 1.485, 0.4125, 1.32, 0.2475, 1.155, 0.0825, 0.99, 1.8975, 0.825, 1.7325, 0.66, 1.5675, 0.495, 1.4025, 0.33, 1.2375, 0.165, 1.0725, 0, 0.9075, 1.815, 0.7425, 1.65, 0.5775, 1.485, 0.4125, 1.32, 0.2475, 1.155, 0.0825, 0.99, 1.8975, 0.825, 1.7325, 0.66, 1.5675, 0.495, 1.4025, 0.33, 1.2375, 0.165, 1.0725, 0, 0.9075, 1.815, 0.7425, 1.65, 0.5775, 1.485, 0.4125, 1.32, 0.2475, 1.155, 0.0825, 0.99, 1.8975, 0.825, 1.7325, 0.66, 1.5675, 0.495, 1.4025, 0.33, 1.2375, 0.165, 1.0725],
  "SoftwareVersions": "syngo_MR_D13D",
  "SpacingBetweenSlices": 1.9,
  "StationName": "AWP66014",
  "TaskName": "updating",
  "TotalReadoutTime": 0.0534753,
  "TxRefAmp": 232.974,
  "WipMemBlock": "b779cbd8-d14b-4505-8a83-ecfee3910d38||Sequence: vd13d/master r/0735857; Nov 19 2014 09:21:40 by eja",
  "dcmmeta_affine": [
    [-1.8963878154754639, 0.016549501568078995, -0.01868790201842785, 109.36605072021484],
    [0.018580026924610138, 1.8839519023895264, -0.21785418689250946, -92.69185638427734],
    [-0.01663248986005783, 0.2176227569580078, 1.8873765468597412, -80.86041259765625],
    [0.0, 0.0, 0.0, 1.0]
],
  "dcmmeta_reorient_transform": [
    [0.0, -1.0, 0.0, 115.0],
    [1.0, 0.0, 0.0, 0.0],
    [0.0, 0.0, 1.0, 0.0],
    [0.0, 0.0, 0.0, 1.0]
],
  "dcmmeta_shape": [116, 116, 72, 218],
  "dcmmeta_slice_dim": 2,
  "dcmmeta_version": 0.6,
  "global": {
    "const": {
      "AcquisitionMatrix": [116, 0, 0, 116],
      "AngioFlag": "N",
      "BitsAllocated": 16,
      "BitsStored": 16,
      "BodyPartExamined": "HEAD",
      "Columns": 1044,
      "EchoNumbers": 1,
      "EchoTime": 30.0,
      "EchoTrainLength": 50,
      "FlipAngle": 81.0,
      "HighBit": 15,
      "ImageOrientationPatient": [0.9999135529818, -0.0097967418551, -0.0087698581705, 0.00872610036933, 0.99335647454964, -0.1147465452319],
      "ImagePositionPatient": [-998.87213825844, -989.49518507029, 52.860638742309],
      "ImageType": [
        "ORIGINAL",
        "PRIMARY",
        "M",
        "MB",
        "ND",
        "MOSAIC"
],
      "ImagedNucleus": "1H",
      "ImagingFrequency": 123.260587,
      "InPlanePhaseEncodingDirection": "COL",
      "LargestImagePixelValue": 65535,
      "MRAcquisitionType": "2D",
      "MagneticFieldStrength": 3.0,
      "Manufacturer": "SIEMENS",
      "ManufacturerModelName": "Prisma",
      "Modality": "MR",
      "NumberOfAverages": 1.0,
      "NumberOfPhaseEncodingSteps": 101,
      "PercentPhaseFieldOfView": 100.0,
      "PercentSampling": 100.0,
      "PerformedProcedureStepStartTime": "103438.621000",
      "PhotometricInterpretation": "MONOCHROME2",
      "PixelBandwidth": 1435.0,
      "PixelRepresentation": 0,
      "PixelSpacing": [1.8965517282486, 1.8965517282486],
      "ProtocolName": "mbep2d_bold_MB3_learn6",
      "RepetitionTime": 2000.0,
      "Rows": 1044,
      "SAR": 0.064480568539,
      "SamplesPerPixel": 1,
      "ScanOptions": [
        "PFP",
        "FS"
],
      "ScanningSequence": "EP",
      "SequenceName": "epfid2d1_116",
      "SequenceVariant": [
        "SK",
        "SS"
],
      "SeriesDescription": "mbep2d_bold_MB3_learn6",
      "SeriesNumber": 11,
      "SeriesTime": "113355.404000",
      "SliceLocation": -70.770822903221,
      "SliceThickness": 1.8999999761581,
      "SmallestImagePixelValue": 0,
      "SoftwareVersions": "syngo MR D13D",
      "SpacingBetweenSlices": 1.9000000276998,
      "SpecificCharacterSet": "ISO_IR 100",
      "StudyID": "1",
      "StudyTime": "103438.527000",
      "TimeOfLastCalibration": ["123723.000000", "123723.000000"],
      "TransmitCoilName": "Body",
      "VariableFlipAngleFlag": "N",
      "WindowCenterWidthExplanation": "Algo1",
      "dBdt": 0.0},
    "slices": {}
  },
  "time": {
    "samples": {
      "AcquisitionNumber": [1, 2, 3, 4, 5, 6, 7, 8, 9, 10, 11, 12, 13, 14, 15, 16, 17, 18, 19, 20, 21, 22, 23, 24, 25, 26, 27, 28, 29, 30, 31, 32, 33, 34, 35, 36, 37, 38, 39, 40, 41, 42, 43, 44, 45, 46, 47, 48, 49, 50, 51, 52, 53, 54, 55, 56, 57, 58, 59, 60, 61, 62, 63, 64, 65, 66, 67, 68, 69, 70, 71, 72, 73, 74, 75, 76, 77, 78, 79, 80, 81, 82, 83, 84, 85, 86, 87, 88, 89, 90, 91, 92, 93, 94, 95, 96, 97, 98, 99, 100, 101, 102, 103, 104, 105, 106, 107, 108, 109, 110, 111, 112, 113, 114, 115, 116, 117, 118, 119, 120, 121, 122, 123, 124, 125, 126, 127, 128, 129, 130, 131, 132, 133, 134, 135, 136, 137, 138, 139, 140, 141, 142, 143, 144, 145, 146, 147, 148, 149, 150, 151, 152, 153, 154, 155, 156, 157, 158, 159, 160, 161, 162, 163, 164, 165, 166, 167, 168, 169, 170, 171, 172, 173, 174, 175, 176, 177, 178, 179, 180, 181, 182, 183, 184, 185, 186, 187, 188, 189, 190, 191, 192, 193, 194, 195, 196, 197, 198, 199, 200, 201, 202, 203, 204, 205, 206, 207, 208, 209, 210, 211, 212, 213, 214, 215, 216, 217, 218],
      "AcquisitionTime": ["113344.097500", "113346.097500", "113348.097500", "113350.097500", "113352.097500", "113354.097500", "113356.097500", "113358.097500", "113400.097500", "113402.097500", "113404.097500", "113406.097500", "113408.097500", "113410.097500", "113412.097500", "113414.097500", "113416.097500", "113418.097500", "113420.097500", "113422.097500", "113424.097500", "113426.097500", "113428.097500", "113430.097500", "113432.097500", "113434.097500", "113436.097500", "113438.097500", "113440.097500", "113442.097500", "113444.097500", "113446.097500", "113448.097500", "113450.097500", "113452.097500", "113454.097500", "113456.097500", "113458.097500", "113500.097500", "113502.097500", "113504.097500", "113506.097500", "113508.097500", "113510.097500", "113512.097500", "113514.097500", "113516.097500", "113518.097500", "113520.097500", "113522.097500", "113524.097500", "113526.097500", "113528.097500", "113530.097500", "113532.097500", "113534.097500", "113536.097500", "113538.097500", "113540.097500", "113542.097500", "113544.097500", "113546.097500", "113548.097500", "113550.097500", "113552.097500", "113554.097500", "113556.097500", "113558.097500", "113600.097500", "113602.097500", "113604.097500", "113606.097500", "113608.097500", "113610.097500", "113612.097500", "113614.097500", "113616.097500", "113618.097500", "113620.097500", "113622.097500", "113624.097500", "113626.097500", "113628.097500", "113630.097500", "113632.097500", "113634.097500", "113636.097500", "113638.097500", "113640.097500", "113642.097500", "113644.097500", "113646.097500", "113648.097500", "113650.097500", "113652.097500", "113654.097500", "113656.097500", "113658.097500", "113700.097500", "113702.097500", "113704.097500", "113706.097500", "113708.097500", "113710.097500", "113712.097500", "113714.097500", "113716.097500", "113718.097500", "113720.097500", "113722.097500", "113724.097500", "113726.097500", "113728.097500", "113730.097500", "113732.097500", "113734.097500", "113736.097500", "113738.097500", "113740.097500", "113742.097500", "113744.097500", "113746.097500", "113748.097500", "113750.097500", "113752.097500", "113754.097500", "113756.097500", "113758.097500", "113800.097500", "113802.097500", "113804.097500", "113806.097500", "113808.097500", "113810.097500", "113812.097500", "113814.097500", "113816.097500", "113818.097500", "113820.097500", "113822.097500", "113824.097500", "113826.097500", "113828.097500", "113830.097500", "113832.097500", "113834.097500", "113836.097500", "113838.097500", "113840.097500", "113842.097500", "113844.097500", "113846.097500", "113848.097500", "113850.097500", "113852.097500", "113854.097500", "113856.097500", "113858.097500", "113900.097500", "113902.097500", "113904.097500", "113906.097500", "113908.097500", "113910.097500", "113912.097500", "113914.097500", "113916.097500", "113918.097500", "113920.097500", "113922.097500", "113924.097500", "113926.097500", "113928.097500", "113930.097500", "113932.097500", "113934.097500", "113936.097500", "113938.097500", "113940.097500", "113942.097500", "113944.097500", "113946.097500", "113948.097500", "113950.097500", "113952.097500", "113954.097500", "113956.097500", "113958.097500", "114000.097500", "114002.097500", "114004.097500", "114006.097500", "114008.097500", "114010.097500", "114012.097500", "114014.097500", "114016.097500", "114018.097500", "114020.097500", "114022.097500", "114024.097500", "114026.097500", "114028.097500", "114030.097500", "114032.097500", "114034.097500", "114036.097500", "114038.097500", "114040.097500", "114042.097500", "114044.097500", "114046.097500", "114048.097500", "114050.097500", "114052.097500", "114054.097500", "114056.097500", "114058.097500"],
      "ContentTime": ["113355.410000", "113356.404000", "113357.404000", "113357.409000", "113358.903000", "113358.911000", "113358.915000", "113400.903000", "113402.904000", "113404.904000", "113406.904000", "113408.904000", "113410.904000", "113412.903000", "113415.404000", "113416.904000", "113418.904000", "113420.904000", "113422.904000", "113424.904000", "113426.904000", "113428.904000", "113430.903000", "113432.904000", "113434.904000", "113437.404000", "113438.903000", "113441.404000", "113442.902000", "113444.905000", "113446.903000", "113448.904000", "113450.904000", "113452.919000", "113454.905000", "113456.904000", "113458.904000", "113500.904000", "113502.905000", "113504.903000", "113506.904000", "113508.904000", "113510.904000", "113512.904000", "113514.905000", "113516.908000", "113518.907000", "113520.904000", "113522.903000", "113524.904000", "113526.904000", "113528.904000", "113530.903000", "113532.905000", "113535.404000", "113537.404000", "113538.903000", "113540.903000", "113542.904000", "113544.904000", "113546.905000", "113548.904000", "113550.904000", "113552.902000", "113554.904000", "113556.903000", "113559.404000", "113600.905000", "113602.904000", "113605.404000", "113606.903000", "113608.904000", "113611.404000", "113612.904000", "113615.403000", "113616.904000", "113618.903000", "113620.904000", "113622.902000", "113624.904000", "113626.904000", "113628.904000", "113630.904000", "113632.903000", "113634.904000", "113636.905000", "113638.904000", "113640.904000", "113643.403000", "113644.904000", "113646.904000", "113648.903000", "113650.903000", "113652.904000", "113655.404000", "113656.904000", "113658.904000", "113700.904000", "113702.904000", "113704.902000", "113706.903000", "113708.904000", "113710.904000", "113712.905000", "113714.904000", "113717.404000", "113719.404000", "113720.904000", "113722.904000", "113724.903000", "113726.904000", "113728.904000", "113730.905000", "113732.905000", "113734.904000", "113736.904000", "113738.904000", "113740.904000", "113742.903000", "113744.904000", "113746.904000", "113748.904000", "113750.904000", "113752.904000", "113754.904000", "113756.904000", "113759.403000", "113801.404000", "113802.904000", "113804.905000", "113806.904000", "113808.905000", "113810.904000", "113812.904000", "113814.904000", "113816.903000", "113818.904000", "113820.904000", "113822.902000", "113824.903000", "113826.904000", "113828.904000", "113830.904000", "113832.904000", "113834.903000", "113836.904000", "113838.904000", "113841.404000", "113842.904000", "113844.904000", "113846.904000", "113848.904000", "113850.904000", "113852.903000", "113854.905000", "113856.904000", "113858.904000", "113900.904000", "113902.904000", "113904.904000", "113906.904000", "113908.903000", "113910.903000", "113912.905000", "113914.904000", "113917.404000", "113919.404000", "113921.404000", "113922.903000", "113924.902000", "113926.903000", "113928.904000", "113931.404000", "113933.404000", "113935.404000", "113936.903000", "113938.904000", "113940.904000", "113942.904000", "113944.903000", "113946.904000", "113948.904000", "113950.904000", "113952.904000", "113955.404000", "113957.404000", "113959.404000", "114000.903000", "114002.904000", "114004.904000", "114006.904000", "114008.904000", "114010.902000", "114012.905000", "114015.404000", "114016.904000", "114018.903000", "114020.903000", "114022.914000", "114025.404000", "114026.903000", "114028.904000", "114030.904000", "114032.904000", "114034.904000", "114037.404000", "114038.903000", "114040.904000", "114043.405000", "114044.905000", "114046.904000", "114048.904000", "114050.904000", "114052.904000", "114054.903000", "114056.905000", "114059.405000", "114100.862000"],
      "InstanceCreationTime": ["113355.410000", "113356.404000", "113357.404000", "113357.409000", "113358.903000", "113358.911000", "113358.915000", "113400.903000", "113402.904000", "113404.904000", "113406.904000", "113408.904000", "113410.904000", "113412.903000", "113415.404000", "113416.904000", "113418.904000", "113420.904000", "113422.904000", "113424.904000", "113426.904000", "113428.904000", "113430.903000", "113432.904000", "113434.904000", "113437.404000", "113438.903000", "113441.404000", "113442.902000", "113444.905000", "113446.903000", "113448.904000", "113450.904000", "113452.919000", "113454.905000", "113456.904000", "113458.904000", "113500.904000", "113502.905000", "113504.903000", "113506.904000", "113508.904000", "113510.904000", "113512.904000", "113514.905000", "113516.908000", "113518.907000", "113520.904000", "113522.903000", "113524.904000", "113526.904000", "113528.904000", "113530.903000", "113532.905000", "113535.404000", "113537.404000", "113538.903000", "113540.903000", "113542.904000", "113544.904000", "113546.905000", "113548.904000", "113550.904000", "113552.902000", "113554.904000", "113556.903000", "113559.404000", "113600.905000", "113602.904000", "113605.404000", "113606.903000", "113608.904000", "113611.404000", "113612.904000", "113615.403000", "113616.904000", "113618.903000", "113620.904000", "113622.902000", "113624.904000", "113626.904000", "113628.904000", "113630.904000", "113632.903000", "113634.904000", "113636.905000", "113638.904000", "113640.904000", "113643.403000", "113644.904000", "113646.904000", "113648.903000", "113650.903000", "113652.904000", "113655.404000", "113656.904000", "113658.904000", "113700.904000", "113702.904000", "113704.902000", "113706.903000", "113708.904000", "113710.904000", "113712.905000", "113714.904000", "113717.404000", "113719.404000", "113720.904000", "113722.904000", "113724.903000", "113726.904000", "113728.904000", "113730.905000", "113732.905000", "113734.904000", "113736.904000", "113738.904000", "113740.904000", "113742.903000", "113744.904000", "113746.904000", "113748.904000", "113750.904000", "113752.904000", "113754.904000", "113756.904000", "113759.403000", "113801.404000", "113802.904000", "113804.905000", "113806.904000", "113808.905000", "113810.904000", "113812.904000", "113814.904000", "113816.903000", "113818.904000", "113820.904000", "113822.902000", "113824.903000", "113826.904000", "113828.904000", "113830.904000", "113832.904000", "113834.903000", "113836.904000", "113838.904000", "113841.404000", "113842.904000", "113844.904000", "113846.904000", "113848.904000", "113850.904000", "113852.903000", "113854.905000", "113856.904000", "113858.904000", "113900.904000", "113902.904000", "113904.904000", "113906.904000", "113908.903000", "113910.903000", "113912.905000", "113914.904000", "113917.404000", "113919.404000", "113921.404000", "113922.903000", "113924.902000", "113926.903000", "113928.904000", "113931.404000", "113933.404000", "113935.404000", "113936.903000", "113938.904000", "113940.904000", "113942.904000", "113944.903000", "113946.904000", "113948.904000", "113950.904000", "113952.904000", "113955.404000", "113957.404000", "113959.404000", "114000.903000", "114002.904000", "114004.904000", "114006.904000", "114008.904000", "114010.902000", "114012.905000", "114015.404000", "114016.904000", "114018.903000", "114020.903000", "114022.914000", "114025.404000", "114026.903000", "114028.904000", "114030.904000", "114032.904000", "114034.904000", "114037.404000", "114038.903000", "114040.904000", "114043.405000", "114044.905000", "114046.904000", "114048.904000", "114050.904000", "114052.904000", "114054.903000", "114056.905000", "114059.405000", "114100.862000"],
      "InstanceNumber": [1, 2, 3, 4, 5, 6, 7, 8, 9, 10, 11, 12, 13, 14, 15, 16, 17, 18, 19, 20, 21, 22, 23, 24, 25, 26, 27, 28, 29, 30, 31, 32, 33, 34, 35, 36, 37, 38, 39, 40, 41, 42, 43, 44, 45, 46, 47, 48, 49, 50, 51, 52, 53, 54, 55, 56, 57, 58, 59, 60, 61, 62, 63, 64, 65, 66, 67, 68, 69, 70, 71, 72, 73, 74, 75, 76, 77, 78, 79, 80, 81, 82, 83, 84, 85, 86, 87, 88, 89, 90, 91, 92, 93, 94, 95, 96, 97, 98, 99, 100, 101, 102, 103, 104, 105, 106, 107, 108, 109, 110, 111, 112, 113, 114, 115, 116, 117, 118, 119, 120, 121, 122, 123, 124, 125, 126, 127, 128, 129, 130, 131, 132, 133, 134, 135, 136, 137, 138, 139, 140, 141, 142, 143, 144, 145, 146, 147, 148, 149, 150, 151, 152, 153, 154, 155, 156, 157, 158, 159, 160, 161, 162, 163, 164, 165, 166, 167, 168, 169, 170, 171, 172, 173, 174, 175, 176, 177, 178, 179, 180, 181, 182, 183, 184, 185, 186, 187, 188, 189, 190, 191, 192, 193, 194, 195, 196, 197, 198, 199, 200, 201, 202, 203, 204, 205, 206, 207, 208, 209, 210, 211, 212, 213, 214, 215, 216, 217, 218],
      "WindowCenter": [18369.0, 18321.0, 18321.0, 18328.0, 18326.0, 18287.0, 18298.0, 18274.0, 18294.0, 18273.0, 18290.0, 18273.0, 18277.0, 18275.0, 18274.0, 18245.0, 18264.0, 18293.0, 18321.0, 18300.0, 18310.0, 18283.0, 18288.0, 18282.0, 18301.0, 18328.0, 18314.0, 18310.0, 18283.0, 18284.0, 18285.0, 18285.0, 18313.0, 18319.0, 18321.0, 18321.0, 18305.0, 18297.0, 18285.0, 18258.0, 18293.0, 18277.0, 18320.0, 18330.0, 18326.0, 18290.0, 18280.0, 18294.0, 18282.0, 18276.0, 18283.0, 18311.0, 18273.0, 18282.0, 18275.0, 18298.0, 18309.0, 18318.0, 18301.0, 18291.0, 18303.0, 18292.0, 18263.0, 18263.0, 18286.0, 18271.0, 18292.0, 18300.0, 18285.0, 18307.0, 18275.0, 18265.0, 18285.0, 18287.0, 18322.0, 18319.0, 18295.0, 18255.0, 18256.0, 18243.0, 18258.0, 18257.0, 18272.0, 18286.0, 18290.0, 18291.0, 18276.0, 18277.0, 18302.0, 18288.0, 18262.0, 18320.0, 18300.0, 18307.0, 18307.0, 18292.0, 18306.0, 18299.0, 18315.0, 18266.0, 18274.0, 18270.0, 18260.0, 18261.0, 18282.0, 18292.0, 18260.0, 18256.0, 18257.0, 18278.0, 18287.0, 18255.0, 18304.0, 18293.0, 18300.0, 18309.0, 18278.0, 18269.0, 18309.0, 18321.0, 18345.0, 18297.0, 18280.0, 18268.0, 18271.0, 18286.0, 18294.0, 18282.0, 18274.0, 18283.0, 18311.0, 18318.0, 18308.0, 18278.0, 18273.0, 18285.0, 18295.0, 18315.0, 18306.0, 18288.0, 18277.0, 18299.0, 18308.0, 18305.0, 18332.0, 18329.0, 18306.0, 18278.0, 18283.0, 18282.0, 18279.0, 18269.0, 18278.0, 18315.0, 18310.0, 18304.0, 18290.0, 18280.0, 18291.0, 18299.0, 18276.0, 18268.0, 18264.0, 18258.0, 18294.0, 18316.0, 18317.0, 18290.0, 18258.0, 18253.0, 18264.0, 18268.0, 18292.0, 18296.0, 18291.0, 18259.0, 18262.0, 18273.0, 18266.0, 18287.0, 18277.0, 18287.0, 18286.0, 18272.0, 18249.0, 18240.0, 18256.0, 18274.0, 18280.0, 18273.0, 18282.0, 18281.0, 18266.0, 18257.0, 18293.0, 18299.0, 18299.0, 18305.0, 18289.0, 18287.0, 18290.0, 18281.0, 18249.0, 18256.0, 18281.0, 18315.0, 18335.0, 18307.0, 18280.0, 18282.0, 18276.0, 18295.0, 18282.0, 18287.0, 18272.0, 18280.0, 18283.0, 18294.0],
      "WindowWidth": [50529.0, 50426.0, 50427.0, 50478.0, 50429.0, 50393.0, 50318.0, 50387.0, 50351.0, 50376.0, 50372.0, 50363.0, 50328.0, 50328.0, 50281.0, 50289.0, 50240.0, 50340.0, 50390.0, 50448.0, 50356.0, 50271.0, 50213.0, 50225.0, 50368.0, 50419.0, 50412.0, 50325.0, 50286.0, 50286.0, 50310.0, 50346.0, 50360.0, 50384.0, 50377.0, 50435.0, 50401.0, 50363.0, 50285.0, 50247.0, 50217.0, 50258.0, 50352.0, 50382.0, 50294.0, 50274.0, 50259.0, 50242.0, 50260.0, 50328.0, 50345.0, 50335.0, 50327.0, 50343.0, 50353.0, 50425.0, 50443.0, 50423.0, 50438.0, 50432.0, 50391.0, 50373.0, 50356.0, 50357.0, 50370.0, 50386.0, 50457.0, 50448.0, 50428.0, 50370.0, 50364.0, 50335.0, 50380.0, 50431.0, 50570.0, 50482.0, 50350.0, 50221.0, 50162.0, 50157.0, 50189.0, 50260.0, 50303.0, 50252.0, 50265.0, 50265.0, 50282.0, 50294.0, 50260.0, 50301.0, 50347.0, 50437.0, 50474.0, 50428.0, 50346.0, 50338.0, 50359.0, 50402.0, 50422.0, 50405.0, 50351.0, 50302.0, 50344.0, 50381.0, 50392.0, 50338.0, 50357.0, 50367.0, 50390.0, 50365.0, 50348.0, 50474.0, 50490.0, 50518.0, 50485.0, 50403.0, 50349.0, 50355.0, 50369.0, 50519.0, 50483.0, 50410.0, 50342.0, 50264.0, 50266.0, 50321.0, 50290.0, 50247.0, 50290.0, 50344.0, 50420.0, 50423.0, 50392.0, 50305.0, 50243.0, 50262.0, 50340.0, 50433.0, 50415.0, 50381.0, 50364.0, 50376.0, 50359.0, 50393.0, 50466.0, 50451.0, 50378.0, 50352.0, 50308.0, 50297.0, 50259.0, 50266.0, 50296.0, 50362.0, 50359.0, 50331.0, 50323.0, 50343.0, 50361.0, 50354.0, 50304.0, 50253.0, 50216.0, 50260.0, 50388.0, 50472.0, 50435.0, 50336.0, 50259.0, 50246.0, 50251.0, 50290.0, 50387.0, 50412.0, 50326.0, 50261.0, 50262.0, 50282.0, 50278.0, 50288.0, 50307.0, 50359.0, 50333.0, 50275.0, 50228.0, 50249.0, 50283.0, 50353.0, 50368.0, 50363.0, 50332.0, 50309.0, 50302.0, 50357.0, 50364.0, 50331.0, 50355.0, 50408.0, 50445.0, 50360.0, 50289.0, 50238.0, 50230.0, 50222.0, 50321.0, 50413.0, 50459.0, 50419.0, 50333.0, 50276.0, 50296.0, 50280.0, 50286.0, 50289.0, 50292.0, 50309.0, 50311.0, 50292.0]
    },
    "slices": {}
  }
}