{
  "AcquisitionMatrixPE": 116,
  "AcquisitionNumber": 1,
  "AcquisitionTime": "10:51:36.505000",
  "BandwidthPerPixelPhaseEncode": 18.539,
  "BaseResolution": 116,
  "BodyPartExamined": "HEAD",
  "ConsistencyInfo": "N4_VD13D_LATEST_20130810",
  "ConversionSoftware": "dcm2niix",
  "ConversionSoftwareVersion": "v1.0.20190410  (JP2:OpenJPEG) (JP-LS:CharLS) GCC5.5.0",
  "DerivedVendorReportedEchoSpacing": 0.000930006,
  "DeviceSerialNumber": "66014",
  "DwellTime": 3e-06,
  "EchoTime": 0.03,
  "EchoTrainLength": 50,
  "EffectiveEchoSpacing": 0.000465003,
  "FlipAngle": 81,
  "ImageComments": "Unaliased_MB3_PE4",
  "ImageOrientationPatientDICOM": [0.999914, -0.00979674, -0.00876986, 0.0087261, 0.993356, -0.114747],
  "ImageType": [
    "ORIGINAL",
    "PRIMARY",
    "M",
    "MB",
    "ND",
    "MOSAIC"
],
  "ImagingFrequency": 123.261,
  "InPlanePhaseEncodingDirectionDICOM": "COL",
  "InstitutionAddress": "Yiheyuan_Road_5_Beijing_Haidian_CN_100871",
  "InstitutionName": "Peking_University",
  "InstitutionalDepartmentName": "Department",
  "MRAcquisitionType": "2D",
  "MagneticFieldStrength": 3,
  "Manufacturer": "Siemens",
  "ManufacturersModelName": "Prisma",
  "Modality": "MR",
  "MultibandAccelerationFactor": 3,
  "ParallelReductionFactorInPlane": 2,
  "PartialFourier": 0.875,
  "PatientPosition": "HFS",
  "PercentPhaseFOV": 100,
  "PhaseEncodingDirection": "j-",
  "PhaseEncodingSteps": 101,
  "PhaseResolution": 1,
  "PixelBandwidth": 1435,
  "ProcedureStepDescription": "Research_Projects_64CH",
  "ProtocolName": "mbep2d_bold_MB3_learn1",
  "PulseSequenceDetails": "%CustomerSeq%_cmrr_mbep2d_bold",
  "ReceiveCoilActiveElements": "HC1-6",
  "ReceiveCoilName": "HeadNeck_64",
  "ReconMatrixPE": 116,
  "RefLinesPE": 44,
  "RepetitionTime": 2,
  "SAR": 0.0644806,
  "ScanOptions": "PFP_FS",
  "ScanningSequence": "EP",
  "SequenceName": "epfid2d1_116",
  "SequenceVariant": "SK_SS",
  "SeriesDescription": "mbep2d_bold_MB3_learn1",
  "SeriesNumber": 6,
  "ShimSetting": [-3462, -2089, -1976, 370, -47, -186, -71, 20],
  "SliceThickness": 1.9,
  "SliceTiming": [0, 0.9075, 1.815, 0.7425, 1.65, 0.5775, 1.485, 0.4125, 1.32, 0.2475, 1.155, 0.0825, 0.99, 1.8975, 0.825, 1.7325, 0.66, 1.5675, 0.495, 1.4025, 0.33, 1.2375, 0.165, 1.0725, 0, 0.9075, 1.815, 0.7425, 1.65, 0.5775, 1.485, 0.4125, 1.32, 0.2475, 1.155, 0.0825, 0.99, 1.8975, 0.825, 1.7325, 0.66, 1.5675, 0.495, 1.4025, 0.33, 1.2375, 0.165, 1.0725, 0, 0.9075, 1.815, 0.7425, 1.65, 0.5775, 1.485, 0.4125, 1.32, 0.2475, 1.155, 0.0825, 0.99, 1.8975, 0.825, 1.7325, 0.66, 1.5675, 0.495, 1.4025, 0.33, 1.2375, 0.165, 1.0725],
  "SoftwareVersions": "syngo_MR_D13D",
  "SpacingBetweenSlices": 1.9,
  "StationName": "AWP66014",
  "TaskName": "updating",
  "TotalReadoutTime": 0.0534753,
  "TxRefAmp": 232.974,
  "WipMemBlock": "a4c56f35-6bed-48ab-9f8d-d19162c6f16c||Sequence: vd13d/master r/0735857; Nov 19 2014 09:21:40 by eja",
  "dcmmeta_affine": [
    [-1.8963878154754639, 0.016549501568078995, -0.01868790201842785, 109.36605072021484],
    [0.018580026924610138, 1.8839519023895264, -0.21785418689250946, -92.69185638427734],
    [-0.01663248986005783, 0.2176227569580078, 1.8873765468597412, -80.86041259765625],
    [0.0, 0.0, 0.0, 1.0]
],
  "dcmmeta_reorient_transform": [
    [0.0, -1.0, 0.0, 115.0],
    [1.0, 0.0, 0.0, 0.0],
    [0.0, 0.0, 1.0, 0.0],
    [0.0, 0.0, 0.0, 1.0]
],
  "dcmmeta_shape": [116, 116, 72, 218],
  "dcmmeta_slice_dim": 2,
  "dcmmeta_version": 0.6,
  "global": {
    "const": {
      "AcquisitionMatrix": [116, 0, 0, 116],
      "AngioFlag": "N",
      "BitsAllocated": 16,
      "BitsStored": 16,
      "BodyPartExamined": "HEAD",
      "Columns": 1044,
      "EchoNumbers": 1,
      "EchoTime": 30.0,
      "EchoTrainLength": 50,
      "FlipAngle": 81.0,
      "HighBit": 15,
      "ImageOrientationPatient": [0.9999135529818, -0.0097967418551, -0.0087698581705, 0.00872610036933, 0.99335647454964, -0.1147465452319],
      "ImagePositionPatient": [-998.87213825844, -989.49518507029, 52.860638742309],
      "ImageType": [
        "ORIGINAL",
        "PRIMARY",
        "M",
        "MB",
        "ND",
        "MOSAIC"
],
      "ImagedNucleus": "1H",
      "ImagingFrequency": 123.260583,
      "InPlanePhaseEncodingDirection": "COL",
      "LargestImagePixelValue": 65535,
      "MRAcquisitionType": "2D",
      "MagneticFieldStrength": 3.0,
      "Manufacturer": "SIEMENS",
      "ManufacturerModelName": "Prisma",
      "Modality": "MR",
      "NumberOfAverages": 1.0,
      "NumberOfPhaseEncodingSteps": 101,
      "PercentPhaseFieldOfView": 100.0,
      "PercentSampling": 100.0,
      "PerformedProcedureStepStartTime": "103438.621000",
      "PhotometricInterpretation": "MONOCHROME2",
      "PixelBandwidth": 1435.0,
      "PixelRepresentation": 0,
      "PixelSpacing": [1.8965517282486, 1.8965517282486],
      "ProtocolName": "mbep2d_bold_MB3_learn1",
      "RepetitionTime": 2000.0,
      "Rows": 1044,
      "SAR": 0.064480568539,
      "SamplesPerPixel": 1,
      "ScanOptions": [
        "PFP",
        "FS"
],
      "ScanningSequence": "EP",
      "SequenceName": "epfid2d1_116",
      "SequenceVariant": [
        "SK",
        "SS"
],
      "SeriesDescription": "mbep2d_bold_MB3_learn1",
      "SeriesNumber": 6,
      "SeriesTime": "105148.228000",
      "SliceLocation": -70.770822903221,
      "SliceThickness": 1.8999999761581,
      "SmallestImagePixelValue": 0,
      "SoftwareVersions": "syngo MR D13D",
      "SpacingBetweenSlices": 1.9000000276998,
      "SpecificCharacterSet": "ISO_IR 100",
      "StudyID": "1",
      "StudyTime": "103438.527000",
      "TimeOfLastCalibration": ["123723.000000", "123723.000000"],
      "TransmitCoilName": "Body",
      "VariableFlipAngleFlag": "N",
      "WindowCenterWidthExplanation": "Algo1",
      "dBdt": 0.0},
    "slices": {}
  },
  "time": {
    "samples": {
      "AcquisitionNumber": [1, 2, 3, 4, 5, 6, 7, 8, 9, 10, 11, 12, 13, 14, 15, 16, 17, 18, 19, 20, 21, 22, 23, 24, 25, 26, 27, 28, 29, 30, 31, 32, 33, 34, 35, 36, 37, 38, 39, 40, 41, 42, 43, 44, 45, 46, 47, 48, 49, 50, 51, 52, 53, 54, 55, 56, 57, 58, 59, 60, 61, 62, 63, 64, 65, 66, 67, 68, 69, 70, 71, 72, 73, 74, 75, 76, 77, 78, 79, 80, 81, 82, 83, 84, 85, 86, 87, 88, 89, 90, 91, 92, 93, 94, 95, 96, 97, 98, 99, 100, 101, 102, 103, 104, 105, 106, 107, 108, 109, 110, 111, 112, 113, 114, 115, 116, 117, 118, 119, 120, 121, 122, 123, 124, 125, 126, 127, 128, 129, 130, 131, 132, 133, 134, 135, 136, 137, 138, 139, 140, 141, 142, 143, 144, 145, 146, 147, 148, 149, 150, 151, 152, 153, 154, 155, 156, 157, 158, 159, 160, 161, 162, 163, 164, 165, 166, 167, 168, 169, 170, 171, 172, 173, 174, 175, 176, 177, 178, 179, 180, 181, 182, 183, 184, 185, 186, 187, 188, 189, 190, 191, 192, 193, 194, 195, 196, 197, 198, 199, 200, 201, 202, 203, 204, 205, 206, 207, 208, 209, 210, 211, 212, 213, 214, 215, 216, 217, 218],
      "AcquisitionTime": ["105136.505000", "105138.505000", "105140.505000", "105142.505000", "105144.505000", "105146.505000", "105148.505000", "105150.505000", "105152.505000", "105154.505000", "105156.505000", "105158.505000", "105200.505000", "105202.505000", "105204.505000", "105206.505000", "105208.505000", "105210.505000", "105212.505000", "105214.505000", "105216.505000", "105218.505000", "105220.505000", "105222.505000", "105224.505000", "105226.505000", "105228.505000", "105230.505000", "105232.505000", "105234.505000", "105236.505000", "105238.505000", "105240.505000", "105242.505000", "105244.505000", "105246.505000", "105248.505000", "105250.505000", "105252.505000", "105254.505000", "105256.505000", "105258.505000", "105300.505000", "105302.505000", "105304.505000", "105306.505000", "105308.505000", "105310.505000", "105312.505000", "105314.505000", "105316.505000", "105318.505000", "105320.505000", "105322.505000", "105324.505000", "105326.505000", "105328.505000", "105330.505000", "105332.505000", "105334.505000", "105336.505000", "105338.505000", "105340.505000", "105342.505000", "105344.505000", "105346.505000", "105348.505000", "105350.505000", "105352.505000", "105354.505000", "105356.505000", "105358.505000", "105400.505000", "105402.505000", "105404.505000", "105406.505000", "105408.505000", "105410.505000", "105412.505000", "105414.505000", "105416.505000", "105418.505000", "105420.505000", "105422.505000", "105424.505000", "105426.505000", "105428.505000", "105430.505000", "105432.505000", "105434.505000", "105436.505000", "105438.505000", "105440.505000", "105442.505000", "105444.505000", "105446.505000", "105448.505000", "105450.505000", "105452.505000", "105454.505000", "105456.505000", "105458.505000", "105500.505000", "105502.505000", "105504.505000", "105506.505000", "105508.505000", "105510.505000", "105512.505000", "105514.505000", "105516.505000", "105518.505000", "105520.505000", "105522.505000", "105524.505000", "105526.505000", "105528.505000", "105530.505000", "105532.505000", "105534.505000", "105536.505000", "105538.505000", "105540.505000", "105542.505000", "105544.505000", "105546.505000", "105548.505000", "105550.505000", "105552.505000", "105554.505000", "105556.505000", "105558.505000", "105600.505000", "105602.505000", "105604.505000", "105606.505000", "105608.505000", "105610.505000", "105612.505000", "105614.505000", "105616.505000", "105618.505000", "105620.505000", "105622.505000", "105624.505000", "105626.505000", "105628.505000", "105630.505000", "105632.505000", "105634.505000", "105636.505000", "105638.505000", "105640.505000", "105642.505000", "105644.505000", "105646.505000", "105648.505000", "105650.505000", "105652.505000", "105654.505000", "105656.505000", "105658.507500", "105700.507500", "105702.507500", "105704.507500", "105706.507500", "105708.507500", "105710.507500", "105712.507500", "105714.507500", "105716.507500", "105718.507500", "105720.507500", "105722.507500", "105724.507500", "105726.507500", "105728.507500", "105730.507500", "105732.507500", "105734.507500", "105736.507500", "105738.507500", "105740.507500", "105742.507500", "105744.507500", "105746.507500", "105748.507500", "105750.507500", "105752.507500", "105754.507500", "105756.507500", "105758.507500", "105800.507500", "105802.507500", "105804.507500", "105806.507500", "105808.507500", "105810.507500", "105812.507500", "105814.507500", "105816.507500", "105818.507500", "105820.507500", "105822.507500", "105824.507500", "105826.507500", "105828.507500", "105830.507500", "105832.507500", "105834.507500", "105836.507500", "105838.507500", "105840.507500", "105842.507500", "105844.507500", "105846.507500", "105848.507500", "105850.507500"],
      "ContentTime": ["105148.234000", "105149.227000", "105149.231000", "105150.227000", "105150.231000", "105151.227000", "105152.227000", "105153.226000", "105155.227000", "105157.227000", "105159.228000", "105201.228000", "105203.228000", "105205.228000", "105207.227000", "105209.228000", "105211.227000", "105213.227000", "105215.227000", "105217.229000", "105219.228000", "105221.228000", "105223.228000", "105225.228000", "105227.228000", "105229.227000", "105231.227000", "105233.227000", "105235.228000", "105237.229000", "105239.228000", "105241.228000", "105243.228000", "105245.227000", "105247.227000", "105249.227000", "105251.228000", "105253.228000", "105255.228000", "105257.228000", "105259.228000", "105301.228000", "105303.227000", "105305.227000", "105307.227000", "105309.227000", "105311.228000", "105313.228000", "105315.228000", "105317.229000", "105319.228000", "105321.227000", "105323.227000", "105325.227000", "105327.229000", "105329.228000", "105331.228000", "105333.227000", "105335.228000", "105337.228000", "105339.227000", "105341.227000", "105343.227000", "105345.229000", "105347.228000", "105349.228000", "105351.228000", "105353.228000", "105355.227000", "105357.227000", "105359.227000", "105401.228000", "105403.228000", "105405.228000", "105407.229000", "105409.228000", "105411.228000", "105413.227000", "105415.227000", "105417.228000", "105419.228000", "105421.228000", "105423.228000", "105425.228000", "105427.229000", "105429.228000", "105431.227000", "105433.227000", "105435.227000", "105437.228000", "105439.228000", "105441.228000", "105443.228000", "105445.229000", "105447.228000", "105449.227000", "105451.227000", "105453.227000", "105455.227000", "105457.228000", "105459.229000", "105501.228000", "105503.228000", "105505.227000", "105507.228000", "105509.227000", "105511.228000", "105513.228000", "105515.228000", "105517.228000", "105519.228000", "105521.228000", "105523.227000", "105525.227000", "105527.227000", "105529.228000", "105531.228000", "105533.229000", "105535.229000", "105537.229000", "105539.227000", "105541.227000", "105543.227000", "105545.228000", "105547.227000", "105549.228000", "105551.228000", "105553.228000", "105555.228000", "105557.228000", "105559.227000", "105601.227000", "105603.227000", "105605.228000", "105607.228000", "105609.228000", "105611.228000", "105613.228000", "105615.227000", "105617.228000", "105619.227000", "105621.228000", "105623.228000", "105625.228000", "105627.228000", "105629.226000", "105631.228000", "105633.227000", "105635.227000", "105637.226000", "105639.228000", "105641.228000", "105643.228000", "105645.228000", "105647.228000", "105649.228000", "105651.228000", "105653.228000", "105655.226000", "105657.228000", "105659.228000", "105701.228000", "105703.228000", "105705.228000", "105707.228000", "105709.227000", "105711.227000", "105713.227000", "105715.228000", "105717.228000", "105719.228000", "105721.229000", "105723.228000", "105725.226000", "105727.227000", "105729.227000", "105731.237000", "105733.228000", "105735.229000", "105737.228000", "105739.228000", "105741.228000", "105743.227000", "105745.227000", "105747.227000", "105749.228000", "105751.228000", "105753.228000", "105755.228000", "105757.228000", "105759.228000", "105801.228000", "105803.227000", "105805.227000", "105807.228000", "105809.228000", "105811.228000", "105813.228000", "105815.228000", "105817.228000", "105819.227000", "105821.227000", "105823.227000", "105825.228000", "105827.228000", "105829.228000", "105831.228000", "105833.228000", "105835.228000", "105837.227000", "105839.227000", "105841.228000", "105843.228000", "105845.228000", "105847.226000", "105849.228000", "105851.228000", "105852.770000"],
      "InstanceCreationTime": ["105148.234000", "105149.227000", "105149.231000", "105150.227000", "105150.231000", "105151.227000", "105152.227000", "105153.226000", "105155.227000", "105157.227000", "105159.228000", "105201.228000", "105203.228000", "105205.228000", "105207.227000", "105209.228000", "105211.227000", "105213.227000", "105215.227000", "105217.229000", "105219.228000", "105221.228000", "105223.228000", "105225.228000", "105227.228000", "105229.227000", "105231.227000", "105233.227000", "105235.228000", "105237.229000", "105239.228000", "105241.228000", "105243.228000", "105245.227000", "105247.227000", "105249.227000", "105251.228000", "105253.228000", "105255.228000", "105257.228000", "105259.228000", "105301.228000", "105303.227000", "105305.227000", "105307.227000", "105309.227000", "105311.228000", "105313.228000", "105315.228000", "105317.229000", "105319.228000", "105321.227000", "105323.227000", "105325.227000", "105327.229000", "105329.228000", "105331.228000", "105333.227000", "105335.228000", "105337.228000", "105339.227000", "105341.227000", "105343.227000", "105345.229000", "105347.228000", "105349.228000", "105351.228000", "105353.228000", "105355.227000", "105357.227000", "105359.227000", "105401.228000", "105403.228000", "105405.228000", "105407.229000", "105409.228000", "105411.228000", "105413.227000", "105415.227000", "105417.228000", "105419.228000", "105421.228000", "105423.228000", "105425.228000", "105427.229000", "105429.228000", "105431.227000", "105433.227000", "105435.227000", "105437.228000", "105439.228000", "105441.228000", "105443.228000", "105445.229000", "105447.228000", "105449.227000", "105451.227000", "105453.227000", "105455.227000", "105457.228000", "105459.229000", "105501.228000", "105503.228000", "105505.227000", "105507.228000", "105509.227000", "105511.228000", "105513.228000", "105515.228000", "105517.228000", "105519.228000", "105521.228000", "105523.227000", "105525.227000", "105527.227000", "105529.228000", "105531.228000", "105533.229000", "105535.229000", "105537.229000", "105539.227000", "105541.227000", "105543.227000", "105545.228000", "105547.227000", "105549.228000", "105551.228000", "105553.228000", "105555.228000", "105557.228000", "105559.227000", "105601.227000", "105603.227000", "105605.228000", "105607.228000", "105609.228000", "105611.228000", "105613.228000", "105615.227000", "105617.228000", "105619.227000", "105621.228000", "105623.228000", "105625.228000", "105627.228000", "105629.226000", "105631.228000", "105633.227000", "105635.227000", "105637.226000", "105639.228000", "105641.228000", "105643.228000", "105645.228000", "105647.228000", "105649.228000", "105651.228000", "105653.228000", "105655.226000", "105657.228000", "105659.228000", "105701.228000", "105703.228000", "105705.228000", "105707.228000", "105709.227000", "105711.227000", "105713.227000", "105715.228000", "105717.228000", "105719.228000", "105721.229000", "105723.228000", "105725.226000", "105727.227000", "105729.227000", "105731.237000", "105733.228000", "105735.229000", "105737.228000", "105739.228000", "105741.228000", "105743.227000", "105745.227000", "105747.227000", "105749.228000", "105751.228000", "105753.228000", "105755.228000", "105757.228000", "105759.228000", "105801.228000", "105803.227000", "105805.227000", "105807.228000", "105809.228000", "105811.228000", "105813.228000", "105815.228000", "105817.228000", "105819.227000", "105821.227000", "105823.227000", "105825.228000", "105827.228000", "105829.228000", "105831.228000", "105833.228000", "105835.228000", "105837.227000", "105839.227000", "105841.228000", "105843.228000", "105845.228000", "105847.226000", "105849.228000", "105851.228000", "105852.770000"],
      "InstanceNumber": [1, 2, 3, 4, 5, 6, 7, 8, 9, 10, 11, 12, 13, 14, 15, 16, 17, 18, 19, 20, 21, 22, 23, 24, 25, 26, 27, 28, 29, 30, 31, 32, 33, 34, 35, 36, 37, 38, 39, 40, 41, 42, 43, 44, 45, 46, 47, 48, 49, 50, 51, 52, 53, 54, 55, 56, 57, 58, 59, 60, 61, 62, 63, 64, 65, 66, 67, 68, 69, 70, 71, 72, 73, 74, 75, 76, 77, 78, 79, 80, 81, 82, 83, 84, 85, 86, 87, 88, 89, 90, 91, 92, 93, 94, 95, 96, 97, 98, 99, 100, 101, 102, 103, 104, 105, 106, 107, 108, 109, 110, 111, 112, 113, 114, 115, 116, 117, 118, 119, 120, 121, 122, 123, 124, 125, 126, 127, 128, 129, 130, 131, 132, 133, 134, 135, 136, 137, 138, 139, 140, 141, 142, 143, 144, 145, 146, 147, 148, 149, 150, 151, 152, 153, 154, 155, 156, 157, 158, 159, 160, 161, 162, 163, 164, 165, 166, 167, 168, 169, 170, 171, 172, 173, 174, 175, 176, 177, 178, 179, 180, 181, 182, 183, 184, 185, 186, 187, 188, 189, 190, 191, 192, 193, 194, 195, 196, 197, 198, 199, 200, 201, 202, 203, 204, 205, 206, 207, 208, 209, 210, 211, 212, 213, 214, 215, 216, 217, 218],
      "WindowCenter": [18158.0, 18118.0, 18094.0, 18109.0, 18099.0, 18106.0, 18112.0, 18096.0, 18099.0, 18126.0, 18107.0, 18110.0, 18110.0, 18078.0, 18113.0, 18107.0, 18099.0, 18091.0, 18104.0, 18093.0, 18079.0, 18098.0, 18104.0, 18111.0, 18104.0, 18081.0, 18109.0, 18123.0, 18139.0, 18129.0, 18092.0, 18100.0, 18088.0, 18096.0, 18108.0, 18101.0, 18094.0, 18103.0, 18093.0, 18079.0, 18095.0, 18076.0, 18100.0, 18097.0, 18125.0, 18083.0, 18070.0, 18081.0, 18095.0, 18070.0, 18080.0, 18082.0, 18091.0, 18083.0, 18096.0, 18103.0, 18129.0, 18109.0, 18101.0, 18089.0, 18094.0, 18090.0, 18103.0, 18094.0, 18087.0, 18078.0, 18075.0, 18066.0, 18089.0, 18099.0, 18112.0, 18103.0, 18114.0, 18109.0, 18112.0, 18106.0, 18096.0, 18082.0, 18081.0, 18113.0, 18108.0, 18110.0, 18104.0, 18103.0, 18077.0, 18082.0, 18095.0, 18088.0, 18106.0, 18089.0, 18096.0, 18101.0, 18100.0, 18089.0, 18093.0, 18102.0, 18076.0, 18082.0, 18083.0, 18094.0, 18103.0, 18097.0, 18103.0, 18082.0, 18097.0, 18111.0, 18125.0, 18105.0, 18112.0, 18101.0, 18119.0, 18116.0, 18115.0, 18106.0, 18130.0, 18134.0, 18125.0, 18112.0, 18091.0, 18111.0, 18117.0, 18116.0, 18137.0, 18110.0, 18121.0, 18091.0, 18111.0, 18121.0, 18107.0, 18099.0, 18106.0, 18118.0, 18121.0, 18114.0, 18115.0, 18125.0, 18109.0, 18106.0, 18109.0, 18100.0, 18118.0, 18136.0, 18134.0, 18140.0, 18140.0, 18101.0, 18122.0, 18118.0, 18113.0, 18108.0, 18121.0, 18135.0, 18124.0, 18104.0, 18109.0, 18137.0, 18128.0, 18129.0, 18118.0, 18128.0, 18114.0, 18122.0, 18106.0, 18139.0, 18089.0, 18119.0, 18113.0, 18138.0, 18132.0, 18115.0, 18118.0, 18129.0, 18104.0, 18128.0, 18136.0, 18137.0, 18123.0, 18107.0, 18115.0, 18165.0, 18156.0, 18125.0, 18114.0, 18136.0, 18132.0, 18147.0, 18131.0, 18122.0, 18132.0, 18129.0, 18116.0, 18097.0, 18097.0, 18108.0, 18114.0, 18134.0, 18130.0, 18114.0, 18127.0, 18119.0, 18107.0, 18108.0, 18137.0, 18107.0, 18132.0, 18154.0, 18139.0, 18149.0, 18110.0, 18108.0, 18114.0, 18113.0, 18099.0, 18103.0, 18094.0, 18123.0, 18118.0, 18126.0],
      "WindowWidth": [50441.0, 50343.0, 50339.0, 50323.0, 50343.0, 50275.0, 50278.0, 50293.0, 50295.0, 50299.0, 50275.0, 50254.0, 50278.0, 50296.0, 50350.0, 50347.0, 50366.0, 50386.0, 50382.0, 50315.0, 50331.0, 50365.0, 50453.0, 50397.0, 50367.0, 50355.0, 50372.0, 50489.0, 50535.0, 50442.0, 50338.0, 50293.0, 50228.0, 50280.0, 50347.0, 50391.0, 50352.0, 50295.0, 50217.0, 50173.0, 50182.0, 50197.0, 50221.0, 50245.0, 50249.0, 50262.0, 50277.0, 50212.0, 50171.0, 50158.0, 50200.0, 50213.0, 50216.0, 50261.0, 50280.0, 50252.0, 50252.0, 50265.0, 50224.0, 50180.0, 50158.0, 50155.0, 50139.0, 50170.0, 50165.0, 50124.0, 50077.0, 50108.0, 50205.0, 50188.0, 50169.0, 50177.0, 50219.0, 50230.0, 50230.0, 50179.0, 50185.0, 50164.0, 50165.0, 50170.0, 50217.0, 50241.0, 50214.0, 50176.0, 50150.0, 50163.0, 50171.0, 50155.0, 50153.0, 50155.0, 50136.0, 50139.0, 50140.0, 50170.0, 50160.0, 50176.0, 50186.0, 50190.0, 50190.0, 50220.0, 50260.0, 50257.0, 50261.0, 50238.0, 50247.0, 50267.0, 50311.0, 50298.0, 50229.0, 50212.0, 50210.0, 50175.0, 50149.0, 50156.0, 50253.0, 50268.0, 50238.0, 50171.0, 50172.0, 50146.0, 50172.0, 50172.0, 50173.0, 50170.0, 50115.0, 50124.0, 50159.0, 50213.0, 50266.0, 50200.0, 50216.0, 50223.0, 50213.0, 50221.0, 50233.0, 50214.0, 50206.0, 50180.0, 50182.0, 50203.0, 50285.0, 50281.0, 50269.0, 50236.0, 50198.0, 50200.0, 50226.0, 50223.0, 50186.0, 50183.0, 50248.0, 50232.0, 50190.0, 50168.0, 50184.0, 50211.0, 50217.0, 50218.0, 50260.0, 50229.0, 50172.0, 50152.0, 50121.0, 50114.0, 50196.0, 50235.0, 50231.0, 50197.0, 50171.0, 50163.0, 50150.0, 50169.0, 50264.0, 50327.0, 50307.0, 50258.0, 50216.0, 50255.0, 50309.0, 50345.0, 50292.0, 50286.0, 50258.0, 50222.0, 50209.0, 50229.0, 50257.0, 50273.0, 50243.0, 50228.0, 50174.0, 50200.0, 50187.0, 50217.0, 50246.0, 50279.0, 50217.0, 50160.0, 50143.0, 50138.0, 50132.0, 50134.0, 50102.0, 50171.0, 50279.0, 50243.0, 50284.0, 50289.0, 50291.0, 50301.0, 50194.0, 50121.0, 50116.0, 50189.0, 50234.0, 50261.0, 50235.0, 50287.0]
    },
    "slices": {}
  }
}