{
  "AcquisitionMatrixPE": 116,
  "AcquisitionNumber": 1,
  "AcquisitionTime": "11:53:33.745000",
  "BandwidthPerPixelPhaseEncode": 18.539,
  "BaseResolution": 116,
  "BodyPartExamined": "HEAD",
  "ConsistencyInfo": "N4_VD13D_LATEST_20130810",
  "ConversionSoftware": "dcm2niix",
  "ConversionSoftwareVersion": "v1.0.20190410  (JP2:OpenJPEG) (JP-LS:CharLS) GCC5.5.0",
  "DerivedVendorReportedEchoSpacing": 0.000930006,
  "DeviceSerialNumber": "66014",
  "DwellTime": 3e-06,
  "EchoTime": 0.03,
  "EchoTrainLength": 50,
  "EffectiveEchoSpacing": 0.000465003,
  "FlipAngle": 81,
  "ImageComments": "Unaliased_MB3_PE4",
  "ImageOrientationPatientDICOM": [0.999006, 0.0428369, -0.0123283, -0.0436176, 0.996436, -0.0721958],
  "ImageType": [
    "ORIGINAL",
    "PRIMARY",
    "M",
    "MB",
    "ND",
    "MOSAIC"
],
  "ImagingFrequency": 123.261,
  "InPlanePhaseEncodingDirectionDICOM": "COL",
  "InstitutionAddress": "Yiheyuan_Road_5_Beijing_Haidian_CN_100871",
  "InstitutionName": "Peking_University",
  "InstitutionalDepartmentName": "Department",
  "MRAcquisitionType": "2D",
  "MagneticFieldStrength": 3,
  "Manufacturer": "Siemens",
  "ManufacturersModelName": "Prisma",
  "Modality": "MR",
  "MultibandAccelerationFactor": 3,
  "ParallelReductionFactorInPlane": 2,
  "PartialFourier": 0.875,
  "PatientPosition": "HFS",
  "PercentPhaseFOV": 100,
  "PhaseEncodingDirection": "j-",
  "PhaseEncodingSteps": 101,
  "PhaseResolution": 1,
  "PixelBandwidth": 1435,
  "ProcedureStepDescription": "Research_Projects_64CH",
  "ProtocolName": "mbep2d_bold_MB3_learn2",
  "PulseSequenceDetails": "%CustomerSeq%_cmrr_mbep2d_bold",
  "ReceiveCoilActiveElements": "HC1-7",
  "ReceiveCoilName": "HeadNeck_64",
  "ReconMatrixPE": 116,
  "RefLinesPE": 44,
  "RepetitionTime": 2,
  "SAR": 0.0606598,
  "ScanOptions": "PFP_FS",
  "ScanningSequence": "EP",
  "SequenceName": "epfid2d1_116",
  "SequenceVariant": "SK_SS",
  "SeriesDescription": "mbep2d_bold_MB3_learn2",
  "SeriesNumber": 7,
  "ShimSetting": [-3455, -2089, -1917, 512, -24, -228, 13, 48],
  "SliceThickness": 1.9,
  "SliceTiming": [0, 0.9075, 1.8125, 0.7425, 1.6475, 0.5775, 1.4825, 0.4125, 1.32, 0.2475, 1.155, 0.0825, 0.99, 1.895, 0.825, 1.73, 0.66, 1.565, 0.495, 1.4, 0.33, 1.2375, 0.165, 1.0725, 0, 0.9075, 1.8125, 0.7425, 1.6475, 0.5775, 1.4825, 0.4125, 1.32, 0.2475, 1.155, 0.0825, 0.99, 1.895, 0.825, 1.73, 0.66, 1.565, 0.495, 1.4, 0.33, 1.2375, 0.165, 1.0725, 0, 0.9075, 1.8125, 0.7425, 1.6475, 0.5775, 1.4825, 0.4125, 1.32, 0.2475, 1.155, 0.0825, 0.99, 1.895, 0.825, 1.73, 0.66, 1.565, 0.495, 1.4, 0.33, 1.2375, 0.165, 1.0725],
  "SoftwareVersions": "syngo_MR_D13D",
  "SpacingBetweenSlices": 1.9,
  "StationName": "AWP66014",
  "TaskName": "updating",
  "TotalReadoutTime": 0.0534753,
  "TxRefAmp": 220.278,
  "WipMemBlock": "d0a3498e-a975-4d17-a2b6-c7294cd555f2||Sequence: vd13d/master r/0735857; Nov 19 2014 09:21:40 by eja",
  "dcmmeta_affine": [
    [-1.8946665525436401, -0.08272307366132736, -0.017464250326156616, 114.48136138916016],
    [-0.08124234527349472, 1.8897929191589355, -0.1380573958158493, -90.78335571289062],
    [-0.02338123694062233, 0.13692310452461243, 1.8948971033096313, -66.28165435791016],
    [0.0, 0.0, 0.0, 1.0]
],
  "dcmmeta_reorient_transform": [
    [0.0, -1.0, 0.0, 115.0],
    [1.0, 0.0, 0.0, 0.0],
    [0.0, 0.0, 1.0, 0.0],
    [0.0, 0.0, 0.0, 1.0]
],
  "dcmmeta_shape": [116, 116, 72, 218],
  "dcmmeta_slice_dim": 2,
  "dcmmeta_version": 0.6,
  "global": {
    "const": {
      "AcquisitionMatrix": [116, 0, 0, 116],
      "AngioFlag": "N",
      "BitsAllocated": 16,
      "BitsStored": 16,
      "BodyPartExamined": "HEAD",
      "Columns": 1044,
      "EchoNumbers": 1,
      "EchoTime": 30.0,
      "EchoTrainLength": 50,
      "FlipAngle": 81.0,
      "HighBit": 15,
      "ImageOrientationPatient": [0.999006013885, 0.04283687115657, -0.0123282882481, -0.0436176188326, 0.99643628374613, -0.072195815402],
      "ImagePositionPatient": [-945.70999916071, -1041.1032153481, 23.845710023983],
      "ImageType": [
        "ORIGINAL",
        "PRIMARY",
        "M",
        "MB",
        "ND",
        "MOSAIC"
],
      "ImagedNucleus": "1H",
      "ImagingFrequency": 123.26056,
      "InPlanePhaseEncodingDirection": "COL",
      "LargestImagePixelValue": 65535,
      "MRAcquisitionType": "2D",
      "MagneticFieldStrength": 3.0,
      "Manufacturer": "SIEMENS",
      "ManufacturerModelName": "Prisma",
      "Modality": "MR",
      "NumberOfAverages": 1.0,
      "NumberOfPhaseEncodingSteps": 101,
      "PercentPhaseFieldOfView": 100.0,
      "PercentSampling": 100.0,
      "PerformedProcedureStepStartTime": "112721.382000",
      "PhotometricInterpretation": "MONOCHROME2",
      "PixelBandwidth": 1435.0,
      "PixelRepresentation": 0,
      "PixelSpacing": [1.8965517282486, 1.8965517282486],
      "ProtocolName": "mbep2d_bold_MB3_learn2",
      "RepetitionTime": 2000.0,
      "Rows": 1044,
      "SAR": 0.06065982989194,
      "SamplesPerPixel": 1,
      "ScanOptions": [
        "PFP",
        "FS"
],
      "ScanningSequence": "EP",
      "SequenceName": "epfid2d1_116",
      "SequenceVariant": [
        "SK",
        "SS"
],
      "SeriesDescription": "mbep2d_bold_MB3_learn2",
      "SeriesNumber": 7,
      "SeriesTime": "115348.465000",
      "SliceLocation": -60.559443026891,
      "SliceThickness": 1.8999999761581,
      "SmallestImagePixelValue": 0,
      "SoftwareVersions": "syngo MR D13D",
      "SpacingBetweenSlices": 1.9000000025783,
      "SpecificCharacterSet": "ISO_IR 100",
      "StudyID": "1",
      "StudyTime": "112721.293000",
      "TimeOfLastCalibration": ["123723.000000", "123723.000000"],
      "TransmitCoilName": "Body",
      "VariableFlipAngleFlag": "N",
      "WindowCenterWidthExplanation": "Algo1",
      "dBdt": 0.0},
    "slices": {}
  },
  "time": {
    "samples": {
      "AcquisitionNumber": [1, 2, 3, 4, 5, 6, 7, 8, 9, 10, 11, 12, 13, 14, 15, 16, 17, 18, 19, 20, 21, 22, 23, 24, 25, 26, 27, 28, 29, 30, 31, 32, 33, 34, 35, 36, 37, 38, 39, 40, 41, 42, 43, 44, 45, 46, 47, 48, 49, 50, 51, 52, 53, 54, 55, 56, 57, 58, 59, 60, 61, 62, 63, 64, 65, 66, 67, 68, 69, 70, 71, 72, 73, 74, 75, 76, 77, 78, 79, 80, 81, 82, 83, 84, 85, 86, 87, 88, 89, 90, 91, 92, 93, 94, 95, 96, 97, 98, 99, 100, 101, 102, 103, 104, 105, 106, 107, 108, 109, 110, 111, 112, 113, 114, 115, 116, 117, 118, 119, 120, 121, 122, 123, 124, 125, 126, 127, 128, 129, 130, 131, 132, 133, 134, 135, 136, 137, 138, 139, 140, 141, 142, 143, 144, 145, 146, 147, 148, 149, 150, 151, 152, 153, 154, 155, 156, 157, 158, 159, 160, 161, 162, 163, 164, 165, 166, 167, 168, 169, 170, 171, 172, 173, 174, 175, 176, 177, 178, 179, 180, 181, 182, 183, 184, 185, 186, 187, 188, 189, 190, 191, 192, 193, 194, 195, 196, 197, 198, 199, 200, 201, 202, 203, 204, 205, 206, 207, 208, 209, 210, 211, 212, 213, 214, 215, 216, 217, 218],
      "AcquisitionTime": ["115333.745000", "115335.745000", "115337.745000", "115339.745000", "115341.745000", "115343.745000", "115345.745000", "115347.745000", "115349.745000", "115351.745000", "115353.745000", "115355.745000", "115357.745000", "115359.745000", "115401.745000", "115403.745000", "115405.745000", "115407.745000", "115409.745000", "115411.745000", "115413.745000", "115415.745000", "115417.745000", "115419.745000", "115421.745000", "115423.745000", "115425.745000", "115427.745000", "115429.745000", "115431.745000", "115433.745000", "115435.745000", "115437.745000", "115439.745000", "115441.745000", "115443.745000", "115445.745000", "115447.745000", "115449.745000", "115451.745000", "115453.745000", "115455.745000", "115457.745000", "115459.745000", "115501.745000", "115503.745000", "115505.745000", "115507.745000", "115509.745000", "115511.745000", "115513.745000", "115515.745000", "115517.745000", "115519.745000", "115521.745000", "115523.745000", "115525.745000", "115527.745000", "115529.745000", "115531.745000", "115533.745000", "115535.745000", "115537.745000", "115539.745000", "115541.745000", "115543.745000", "115545.745000", "115547.745000", "115549.745000", "115551.745000", "115553.745000", "115555.745000", "115557.745000", "115559.745000", "115601.745000", "115603.745000", "115605.745000", "115607.745000", "115609.745000", "115611.745000", "115613.745000", "115615.745000", "115617.745000", "115619.745000", "115621.745000", "115623.745000", "115625.745000", "115627.745000", "115629.745000", "115631.745000", "115633.745000", "115635.745000", "115637.745000", "115639.745000", "115641.745000", "115643.745000", "115645.745000", "115647.745000", "115649.745000", "115651.745000", "115653.745000", "115655.745000", "115657.745000", "115659.745000", "115701.745000", "115703.745000", "115705.745000", "115707.745000", "115709.745000", "115711.745000", "115713.745000", "115715.745000", "115717.745000", "115719.745000", "115721.745000", "115723.745000", "115725.745000", "115727.745000", "115729.745000", "115731.745000", "115733.745000", "115735.745000", "115737.745000", "115739.745000", "115741.745000", "115743.745000", "115745.745000", "115747.745000", "115749.745000", "115751.745000", "115753.745000", "115755.745000", "115757.745000", "115759.745000", "115801.745000", "115803.745000", "115805.745000", "115807.745000", "115809.745000", "115811.745000", "115813.745000", "115815.745000", "115817.745000", "115819.745000", "115821.745000", "115823.745000", "115825.745000", "115827.745000", "115829.745000", "115831.745000", "115833.745000", "115835.745000", "115837.745000", "115839.745000", "115841.745000", "115843.745000", "115845.745000", "115847.745000", "115849.745000", "115851.745000", "115853.745000", "115855.745000", "115857.745000", "115859.745000", "115901.745000", "115903.745000", "115905.745000", "115907.745000", "115909.745000", "115911.745000", "115913.745000", "115915.745000", "115917.745000", "115919.745000", "115921.745000", "115923.745000", "115925.745000", "115927.745000", "115929.745000", "115931.745000", "115933.745000", "115935.745000", "115937.745000", "115939.745000", "115941.745000", "115943.745000", "115945.745000", "115947.745000", "115949.745000", "115951.745000", "115953.745000", "115955.745000", "115957.745000", "115959.745000", "120001.745000", "120003.745000", "120005.745000", "120007.745000", "120009.745000", "120011.745000", "120013.745000", "120015.745000", "120017.745000", "120019.745000", "120021.745000", "120023.745000", "120025.745000", "120027.745000", "120029.745000", "120031.745000", "120033.745000", "120035.745000", "120037.745000", "120039.745000", "120041.745000", "120043.745000", "120045.745000", "120047.745000"],
      "ContentTime": ["115348.470000", "115349.463000", "115350.463000", "115350.467000", "115351.463000", "115352.463000", "115352.467000", "115353.462000", "115354.462000", "115355.463000", "115356.965000", "115358.966000", "115400.964000", "115402.964000", "115404.963000", "115406.963000", "115408.963000", "115410.962000", "115412.964000", "115414.964000", "115416.963000", "115418.963000", "115420.963000", "115422.963000", "115424.963000", "115426.963000", "115428.963000", "115430.964000", "115432.964000", "115434.964000", "115436.964000", "115438.964000", "115440.964000", "115442.964000", "115444.964000", "115446.964000", "115448.965000", "115450.965000", "115452.964000", "115454.964000", "115456.964000", "115458.964000", "115500.964000", "115502.964000", "115504.964000", "115506.964000", "115508.965000", "115510.964000", "115512.964000", "115514.963000", "115516.964000", "115518.964000", "115520.965000", "115522.965000", "115524.965000", "115526.965000", "115528.964000", "115530.965000", "115532.965000", "115534.964000", "115536.965000", "115538.964000", "115540.965000", "115542.965000", "115544.964000", "115546.964000", "115548.964000", "115550.963000", "115552.965000", "115554.964000", "115556.962000", "115558.965000", "115600.965000", "115602.964000", "115604.964000", "115606.964000", "115608.965000", "115610.964000", "115612.964000", "115614.964000", "115616.966000", "115618.968000", "115620.966000", "115622.965000", "115624.964000", "115626.964000", "115628.964000", "115630.964000", "115632.965000", "115634.965000", "115636.964000", "115638.964000", "115640.965000", "115642.964000", "115644.964000", "115646.964000", "115648.965000", "115650.965000", "115652.964000", "115654.964000", "115656.964000", "115658.964000", "115700.964000", "115702.964000", "115704.964000", "115706.965000", "115708.965000", "115710.965000", "115712.963000", "115714.964000", "115716.965000", "115718.965000", "115720.965000", "115722.964000", "115724.965000", "115726.965000", "115728.966000", "115730.964000", "115732.964000", "115734.965000", "115736.964000", "115738.964000", "115740.964000", "115742.965000", "115744.965000", "115746.964000", "115748.964000", "115750.964000", "115752.964000", "115754.964000", "115756.964000", "115758.964000", "115800.965000", "115802.963000", "115804.964000", "115806.964000", "115808.964000", "115810.964000", "115812.964000", "115814.964000", "115816.964000", "115818.965000", "115820.966000", "115822.964000", "115824.964000", "115826.964000", "115828.965000", "115830.964000", "115832.965000", "115834.964000", "115836.965000", "115838.965000", "115840.964000", "115842.964000", "115844.964000", "115846.964000", "115848.964000", "115850.964000", "115852.965000", "115854.965000", "115856.964000", "115858.964000", "115900.964000", "115902.964000", "115904.965000", "115906.964000", "115908.964000", "115910.965000", "115912.965000", "115914.964000", "115916.964000", "115918.965000", "115920.964000", "115922.964000", "115924.964000", "115926.965000", "115928.965000", "115930.965000", "115932.964000", "115934.964000", "115936.965000", "115938.964000", "115940.965000", "115942.964000", "115944.964000", "115946.964000", "115948.965000", "115950.964000", "115952.964000", "115954.964000", "115956.964000", "115958.964000", "120000.965000", "120002.965000", "120004.965000", "120006.964000", "120008.964000", "120010.964000", "120012.964000", "120014.964000", "120016.964000", "120018.964000", "120020.965000", "120022.965000", "120024.964000", "120026.964000", "120028.962000", "120030.964000", "120032.965000", "120034.975000", "120036.965000", "120038.965000", "120040.965000", "120042.965000", "120044.964000", "120046.964000", "120048.964000", "120050.613000"],
      "InstanceCreationTime": ["115348.470000", "115349.463000", "115350.463000", "115350.467000", "115351.463000", "115352.463000", "115352.467000", "115353.462000", "115354.462000", "115355.463000", "115356.965000", "115358.966000", "115400.964000", "115402.964000", "115404.963000", "115406.963000", "115408.963000", "115410.962000", "115412.964000", "115414.964000", "115416.963000", "115418.963000", "115420.963000", "115422.963000", "115424.963000", "115426.963000", "115428.963000", "115430.964000", "115432.964000", "115434.964000", "115436.964000", "115438.964000", "115440.964000", "115442.964000", "115444.964000", "115446.964000", "115448.965000", "115450.965000", "115452.964000", "115454.964000", "115456.964000", "115458.964000", "115500.964000", "115502.964000", "115504.964000", "115506.964000", "115508.965000", "115510.964000", "115512.964000", "115514.963000", "115516.964000", "115518.964000", "115520.965000", "115522.965000", "115524.965000", "115526.965000", "115528.964000", "115530.965000", "115532.965000", "115534.964000", "115536.965000", "115538.964000", "115540.965000", "115542.965000", "115544.964000", "115546.964000", "115548.964000", "115550.963000", "115552.965000", "115554.964000", "115556.962000", "115558.965000", "115600.965000", "115602.964000", "115604.964000", "115606.964000", "115608.965000", "115610.964000", "115612.964000", "115614.964000", "115616.966000", "115618.968000", "115620.966000", "115622.965000", "115624.964000", "115626.964000", "115628.964000", "115630.964000", "115632.965000", "115634.965000", "115636.964000", "115638.964000", "115640.965000", "115642.964000", "115644.964000", "115646.964000", "115648.965000", "115650.965000", "115652.964000", "115654.964000", "115656.964000", "115658.964000", "115700.964000", "115702.964000", "115704.964000", "115706.965000", "115708.965000", "115710.965000", "115712.963000", "115714.964000", "115716.965000", "115718.965000", "115720.965000", "115722.964000", "115724.965000", "115726.965000", "115728.966000", "115730.964000", "115732.964000", "115734.965000", "115736.964000", "115738.964000", "115740.964000", "115742.965000", "115744.965000", "115746.964000", "115748.964000", "115750.964000", "115752.964000", "115754.964000", "115756.964000", "115758.964000", "115800.965000", "115802.963000", "115804.964000", "115806.964000", "115808.964000", "115810.964000", "115812.964000", "115814.964000", "115816.964000", "115818.965000", "115820.966000", "115822.964000", "115824.964000", "115826.964000", "115828.965000", "115830.964000", "115832.965000", "115834.964000", "115836.965000", "115838.965000", "115840.964000", "115842.964000", "115844.964000", "115846.964000", "115848.964000", "115850.964000", "115852.965000", "115854.965000", "115856.964000", "115858.964000", "115900.964000", "115902.964000", "115904.965000", "115906.964000", "115908.964000", "115910.965000", "115912.965000", "115914.964000", "115916.964000", "115918.965000", "115920.964000", "115922.964000", "115924.964000", "115926.965000", "115928.965000", "115930.965000", "115932.964000", "115934.964000", "115936.965000", "115938.964000", "115940.965000", "115942.964000", "115944.964000", "115946.964000", "115948.965000", "115950.964000", "115952.964000", "115954.964000", "115956.964000", "115958.964000", "120000.965000", "120002.965000", "120004.965000", "120006.964000", "120008.964000", "120010.964000", "120012.964000", "120014.964000", "120016.964000", "120018.964000", "120020.965000", "120022.965000", "120024.964000", "120026.964000", "120028.962000", "120030.964000", "120032.965000", "120034.975000", "120036.965000", "120038.965000", "120040.965000", "120042.965000", "120044.964000", "120046.964000", "120048.964000", "120050.613000"],
      "InstanceNumber": [1, 2, 3, 4, 5, 6, 7, 8, 9, 10, 11, 12, 13, 14, 15, 16, 17, 18, 19, 20, 21, 22, 23, 24, 25, 26, 27, 28, 29, 30, 31, 32, 33, 34, 35, 36, 37, 38, 39, 40, 41, 42, 43, 44, 45, 46, 47, 48, 49, 50, 51, 52, 53, 54, 55, 56, 57, 58, 59, 60, 61, 62, 63, 64, 65, 66, 67, 68, 69, 70, 71, 72, 73, 74, 75, 76, 77, 78, 79, 80, 81, 82, 83, 84, 85, 86, 87, 88, 89, 90, 91, 92, 93, 94, 95, 96, 97, 98, 99, 100, 101, 102, 103, 104, 105, 106, 107, 108, 109, 110, 111, 112, 113, 114, 115, 116, 117, 118, 119, 120, 121, 122, 123, 124, 125, 126, 127, 128, 129, 130, 131, 132, 133, 134, 135, 136, 137, 138, 139, 140, 141, 142, 143, 144, 145, 146, 147, 148, 149, 150, 151, 152, 153, 154, 155, 156, 157, 158, 159, 160, 161, 162, 163, 164, 165, 166, 167, 168, 169, 170, 171, 172, 173, 174, 175, 176, 177, 178, 179, 180, 181, 182, 183, 184, 185, 186, 187, 188, 189, 190, 191, 192, 193, 194, 195, 196, 197, 198, 199, 200, 201, 202, 203, 204, 205, 206, 207, 208, 209, 210, 211, 212, 213, 214, 215, 216, 217, 218],
      "WindowCenter": [17047.0, 17022.0, 17014.0, 17017.0, 17017.0, 17027.0, 17020.0, 17006.0, 16976.0, 16987.0, 16969.0, 16970.0, 16978.0, 16980.0, 16967.0, 16964.0, 16972.0, 16981.0, 16973.0, 16987.0, 16983.0, 16984.0, 16981.0, 16989.0, 16980.0, 16985.0, 16986.0, 16982.0, 16978.0, 16984.0, 16983.0, 16986.0, 16984.0, 16989.0, 16969.0, 16962.0, 16979.0, 16963.0, 16971.0, 16994.0, 16996.0, 16989.0, 16974.0, 16968.0, 16983.0, 16969.0, 16980.0, 17000.0, 17003.0, 17030.0, 17028.0, 17008.0, 17019.0, 17010.0, 17003.0, 16993.0, 17010.0, 17007.0, 17020.0, 17020.0, 17022.0, 16990.0, 16989.0, 16998.0, 16999.0, 17006.0, 16998.0, 16981.0, 17015.0, 17031.0, 17028.0, 17018.0, 17025.0, 17006.0, 17022.0, 17022.0, 17029.0, 17001.0, 17017.0, 16993.0, 17000.0, 16992.0, 16999.0, 17012.0, 17007.0, 17008.0, 17016.0, 17013.0, 17000.0, 16992.0, 16995.0, 17011.0, 17005.0, 17017.0, 17004.0, 17008.0, 17003.0, 17003.0, 17004.0, 17005.0, 17005.0, 17019.0, 17011.0, 17007.0, 17002.0, 17022.0, 17017.0, 17018.0, 17001.0, 16996.0, 17034.0, 17052.0, 17066.0, 17053.0, 17041.0, 17040.0, 17033.0, 17048.0, 17033.0, 17052.0, 17043.0, 17060.0, 17016.0, 17011.0, 17007.0, 17003.0, 17005.0, 17021.0, 17036.0, 17038.0, 17039.0, 17027.0, 17033.0, 17024.0, 17023.0, 17001.0, 17010.0, 17016.0, 17021.0, 17020.0, 17045.0, 17035.0, 17041.0, 17032.0, 17017.0, 17034.0, 17037.0, 17030.0, 17030.0, 17004.0, 16991.0, 17005.0, 17013.0, 17002.0, 17013.0, 17025.0, 17035.0, 17052.0, 17052.0, 17030.0, 17027.0, 17028.0, 17045.0, 17033.0, 17017.0, 16998.0, 17006.0, 17017.0, 17009.0, 17030.0, 17029.0, 17039.0, 17046.0, 17036.0, 17008.0, 17007.0, 17017.0, 17018.0, 17039.0, 17046.0, 17031.0, 17044.0, 17018.0, 17018.0, 17034.0, 17047.0, 17031.0, 17032.0, 17011.0, 17020.0, 17048.0, 17061.0, 17077.0, 17039.0, 17023.0, 17022.0, 17006.0, 16999.0, 17003.0, 17027.0, 17050.0, 17079.0, 17075.0, 17030.0, 17029.0, 17008.0, 17017.0, 17024.0, 17055.0, 17081.0, 17063.0, 17048.0, 17037.0, 17046.0, 17065.0, 17080.0, 17064.0, 17075.0],
      "WindowWidth": [46227.0, 46100.0, 46054.0, 46137.0, 46133.0, 46116.0, 46072.0, 46058.0, 46073.0, 46042.0, 46040.0, 45988.0, 45981.0, 45917.0, 45919.0, 45930.0, 45979.0, 45933.0, 45952.0, 45950.0, 45935.0, 45939.0, 45949.0, 46009.0, 46001.0, 46006.0, 45992.0, 45975.0, 45945.0, 45937.0, 45975.0, 45965.0, 46016.0, 46019.0, 45950.0, 45945.0, 45894.0, 45905.0, 45898.0, 46063.0, 46000.0, 45956.0, 45851.0, 45793.0, 45844.0, 45857.0, 45880.0, 45923.0, 46044.0, 46066.0, 46092.0, 46063.0, 46072.0, 46076.0, 46055.0, 46060.0, 46038.0, 46100.0, 46112.0, 46150.0, 46109.0, 46003.0, 45964.0, 45974.0, 45963.0, 45979.0, 46013.0, 45999.0, 46052.0, 46091.0, 46102.0, 46080.0, 46061.0, 46004.0, 46057.0, 46082.0, 46075.0, 46066.0, 46004.0, 46023.0, 46001.0, 46021.0, 46028.0, 46001.0, 46048.0, 46101.0, 46082.0, 46028.0, 45976.0, 45983.0, 45974.0, 45988.0, 45993.0, 46003.0, 45993.0, 46010.0, 46035.0, 46017.0, 46017.0, 45979.0, 45980.0, 46031.0, 46011.0, 46036.0, 46007.0, 46010.0, 46005.0, 46005.0, 45952.0, 46000.0, 46073.0, 46192.0, 46174.0, 46098.0, 45997.0, 46051.0, 46083.0, 46093.0, 46119.0, 46148.0, 46127.0, 46141.0, 46094.0, 46010.0, 45929.0, 45925.0, 45930.0, 45956.0, 46034.0, 46140.0, 46087.0, 46037.0, 46017.0, 46036.0, 46049.0, 46108.0, 46089.0, 46016.0, 46033.0, 46139.0, 46169.0, 46149.0, 46114.0, 46043.0, 46018.0, 46084.0, 46113.0, 46068.0, 46016.0, 45891.0, 45894.0, 45919.0, 45952.0, 45982.0, 45992.0, 46043.0, 46154.0, 46271.0, 46202.0, 46080.0, 46051.0, 46095.0, 46162.0, 46135.0, 46098.0, 46108.0, 46102.0, 46099.0, 46158.0, 46163.0, 46136.0, 46159.0, 46101.0, 46143.0, 46159.0, 46161.0, 46102.0, 46036.0, 46001.0, 46047.0, 46151.0, 46158.0, 46206.0, 46129.0, 46127.0, 46188.0, 46174.0, 46153.0, 46087.0, 46111.0, 46169.0, 46322.0, 46238.0, 46123.0, 46034.0, 46011.0, 46065.0, 46075.0, 46145.0, 46153.0, 46225.0, 46296.0, 46290.0, 46227.0, 46139.0, 46072.0, 46095.0, 46181.0, 46185.0, 46272.0, 46281.0, 46206.0, 46110.0, 46173.0, 46171.0, 46156.0, 46142.0, 46100.0]
    },
    "slices": {}
  }
}