{
  "AcquisitionMatrixPE": 116,
  "AcquisitionNumber": 1,
  "AcquisitionTime": "12:27:33.127500",
  "BandwidthPerPixelPhaseEncode": 18.539,
  "BaseResolution": 116,
  "BodyPartExamined": "HEAD",
  "ConsistencyInfo": "N4_VD13D_LATEST_20130810",
  "ConversionSoftware": "dcm2niix",
  "ConversionSoftwareVersion": "v1.0.20190410  (JP2:OpenJPEG) (JP-LS:CharLS) GCC5.5.0",
  "DerivedVendorReportedEchoSpacing": 0.000930006,
  "DeviceSerialNumber": "66014",
  "DwellTime": 3e-06,
  "EchoTime": 0.03,
  "EchoTrainLength": 50,
  "EffectiveEchoSpacing": 0.000465003,
  "FlipAngle": 81,
  "ImageComments": "Unaliased_MB3_PE4",
  "ImageOrientationPatientDICOM": [0.999006, 0.0428369, -0.0123283, -0.0436176, 0.996436, -0.0721958],
  "ImageType": [
    "ORIGINAL",
    "PRIMARY",
    "M",
    "MB",
    "ND",
    "MOSAIC"
],
  "ImagingFrequency": 123.261,
  "InPlanePhaseEncodingDirectionDICOM": "COL",
  "InstitutionAddress": "Yiheyuan_Road_5_Beijing_Haidian_CN_100871",
  "InstitutionName": "Peking_University",
  "InstitutionalDepartmentName": "Department",
  "MRAcquisitionType": "2D",
  "MagneticFieldStrength": 3,
  "Manufacturer": "Siemens",
  "ManufacturersModelName": "Prisma",
  "Modality": "MR",
  "MultibandAccelerationFactor": 3,
  "ParallelReductionFactorInPlane": 2,
  "PartialFourier": 0.875,
  "PatientPosition": "HFS",
  "PercentPhaseFOV": 100,
  "PhaseEncodingDirection": "j-",
  "PhaseEncodingSteps": 101,
  "PhaseResolution": 1,
  "PixelBandwidth": 1435,
  "ProcedureStepDescription": "Research_Projects_64CH",
  "ProtocolName": "mbep2d_bold_MB3_learn6",
  "PulseSequenceDetails": "%CustomerSeq%_cmrr_mbep2d_bold",
  "ReceiveCoilActiveElements": "HC1-7",
  "ReceiveCoilName": "HeadNeck_64",
  "ReconMatrixPE": 116,
  "RefLinesPE": 44,
  "RepetitionTime": 2,
  "SAR": 0.0606598,
  "ScanOptions": "PFP_FS",
  "ScanningSequence": "EP",
  "SequenceName": "epfid2d1_116",
  "SequenceVariant": "SK_SS",
  "SeriesDescription": "mbep2d_bold_MB3_learn6",
  "SeriesNumber": 11,
  "ShimSetting": [-3455, -2089, -1917, 512, -24, -228, 13, 48],
  "SliceThickness": 1.9,
  "SliceTiming": [0, 0.9075, 1.815, 0.7425, 1.65, 0.5775, 1.485, 0.4125, 1.32, 0.2475, 1.155, 0.0825, 0.99, 1.8975, 0.825, 1.7325, 0.66, 1.5675, 0.495, 1.4025, 0.33, 1.2375, 0.165, 1.0725, 0, 0.9075, 1.815, 0.7425, 1.65, 0.5775, 1.485, 0.4125, 1.32, 0.2475, 1.155, 0.0825, 0.99, 1.8975, 0.825, 1.7325, 0.66, 1.5675, 0.495, 1.4025, 0.33, 1.2375, 0.165, 1.0725, 0, 0.9075, 1.815, 0.7425, 1.65, 0.5775, 1.485, 0.4125, 1.32, 0.2475, 1.155, 0.0825, 0.99, 1.8975, 0.825, 1.7325, 0.66, 1.5675, 0.495, 1.4025, 0.33, 1.2375, 0.165, 1.0725],
  "SoftwareVersions": "syngo_MR_D13D",
  "SpacingBetweenSlices": 1.9,
  "StationName": "AWP66014",
  "TaskName": "updating",
  "TotalReadoutTime": 0.0534753,
  "TxRefAmp": 220.278,
  "WipMemBlock": "64ff665c-865d-43b6-a51b-189998206eb6||Sequence: vd13d/master r/0735857; Nov 19 2014 09:21:40 by eja",
  "dcmmeta_affine": [
    [-1.8946665525436401, -0.08272307366132736, -0.017464250326156616, 114.48136138916016],
    [-0.08124234527349472, 1.8897929191589355, -0.1380573958158493, -90.78335571289062],
    [-0.02338123694062233, 0.13692310452461243, 1.8948971033096313, -66.28165435791016],
    [0.0, 0.0, 0.0, 1.0]
],
  "dcmmeta_reorient_transform": [
    [0.0, -1.0, 0.0, 115.0],
    [1.0, 0.0, 0.0, 0.0],
    [0.0, 0.0, 1.0, 0.0],
    [0.0, 0.0, 0.0, 1.0]
],
  "dcmmeta_shape": [116, 116, 72, 218],
  "dcmmeta_slice_dim": 2,
  "dcmmeta_version": 0.6,
  "global": {
    "const": {
      "AcquisitionMatrix": [116, 0, 0, 116],
      "AngioFlag": "N",
      "BitsAllocated": 16,
      "BitsStored": 16,
      "BodyPartExamined": "HEAD",
      "Columns": 1044,
      "EchoNumbers": 1,
      "EchoTime": 30.0,
      "EchoTrainLength": 50,
      "FlipAngle": 81.0,
      "HighBit": 15,
      "ImageOrientationPatient": [0.999006013885, 0.04283687115657, -0.0123282882481, -0.0436176188326, 0.99643628374613, -0.072195815402],
      "ImagePositionPatient": [-945.70999916071, -1041.1032153481, 23.845710023983],
      "ImageType": [
        "ORIGINAL",
        "PRIMARY",
        "M",
        "MB",
        "ND",
        "MOSAIC"
],
      "ImagedNucleus": "1H",
      "ImagingFrequency": 123.260564,
      "InPlanePhaseEncodingDirection": "COL",
      "LargestImagePixelValue": 65535,
      "MRAcquisitionType": "2D",
      "MagneticFieldStrength": 3.0,
      "Manufacturer": "SIEMENS",
      "ManufacturerModelName": "Prisma",
      "Modality": "MR",
      "NumberOfAverages": 1.0,
      "NumberOfPhaseEncodingSteps": 101,
      "PercentPhaseFieldOfView": 100.0,
      "PercentSampling": 100.0,
      "PerformedProcedureStepStartTime": "112721.382000",
      "PhotometricInterpretation": "MONOCHROME2",
      "PixelBandwidth": 1435.0,
      "PixelRepresentation": 0,
      "PixelSpacing": [1.8965517282486, 1.8965517282486],
      "ProtocolName": "mbep2d_bold_MB3_learn6",
      "RepetitionTime": 2000.0,
      "Rows": 1044,
      "SAR": 0.06065982989194,
      "SamplesPerPixel": 1,
      "ScanOptions": [
        "PFP",
        "FS"
],
      "ScanningSequence": "EP",
      "SequenceName": "epfid2d1_116",
      "SequenceVariant": [
        "SK",
        "SS"
],
      "SeriesDescription": "mbep2d_bold_MB3_learn6",
      "SeriesNumber": 11,
      "SeriesTime": "122748.403000",
      "SliceLocation": -60.559443026891,
      "SliceThickness": 1.8999999761581,
      "SmallestImagePixelValue": 0,
      "SoftwareVersions": "syngo MR D13D",
      "SpacingBetweenSlices": 1.9000000025783,
      "SpecificCharacterSet": "ISO_IR 100",
      "StudyID": "1",
      "StudyTime": "112721.293000",
      "TimeOfLastCalibration": ["123723.000000", "123723.000000"],
      "TransmitCoilName": "Body",
      "VariableFlipAngleFlag": "N",
      "WindowCenterWidthExplanation": "Algo1",
      "dBdt": 0.0},
    "slices": {}
  },
  "time": {
    "samples": {
      "AcquisitionNumber": [1, 2, 3, 4, 5, 6, 7, 8, 9, 10, 11, 12, 13, 14, 15, 16, 17, 18, 19, 20, 21, 22, 23, 24, 25, 26, 27, 28, 29, 30, 31, 32, 33, 34, 35, 36, 37, 38, 39, 40, 41, 42, 43, 44, 45, 46, 47, 48, 49, 50, 51, 52, 53, 54, 55, 56, 57, 58, 59, 60, 61, 62, 63, 64, 65, 66, 67, 68, 69, 70, 71, 72, 73, 74, 75, 76, 77, 78, 79, 80, 81, 82, 83, 84, 85, 86, 87, 88, 89, 90, 91, 92, 93, 94, 95, 96, 97, 98, 99, 100, 101, 102, 103, 104, 105, 106, 107, 108, 109, 110, 111, 112, 113, 114, 115, 116, 117, 118, 119, 120, 121, 122, 123, 124, 125, 126, 127, 128, 129, 130, 131, 132, 133, 134, 135, 136, 137, 138, 139, 140, 141, 142, 143, 144, 145, 146, 147, 148, 149, 150, 151, 152, 153, 154, 155, 156, 157, 158, 159, 160, 161, 162, 163, 164, 165, 166, 167, 168, 169, 170, 171, 172, 173, 174, 175, 176, 177, 178, 179, 180, 181, 182, 183, 184, 185, 186, 187, 188, 189, 190, 191, 192, 193, 194, 195, 196, 197, 198, 199, 200, 201, 202, 203, 204, 205, 206, 207, 208, 209, 210, 211, 212, 213, 214, 215, 216, 217, 218],
      "AcquisitionTime": ["122733.127500", "122735.127500", "122737.127500", "122739.127500", "122741.127500", "122743.127500", "122745.127500", "122747.127500", "122749.127500", "122751.127500", "122753.127500", "122755.127500", "122757.127500", "122759.127500", "122801.127500", "122803.127500", "122805.127500", "122807.127500", "122809.127500", "122811.127500", "122813.127500", "122815.127500", "122817.127500", "122819.127500", "122821.127500", "122823.127500", "122825.127500", "122827.127500", "122829.127500", "122831.127500", "122833.127500", "122835.127500", "122837.127500", "122839.127500", "122841.127500", "122843.127500", "122845.127500", "122847.127500", "122849.127500", "122851.127500", "122853.127500", "122855.127500", "122857.127500", "122859.127500", "122901.127500", "122903.127500", "122905.127500", "122907.127500", "122909.127500", "122911.127500", "122913.127500", "122915.127500", "122917.127500", "122919.127500", "122921.127500", "122923.127500", "122925.127500", "122927.127500", "122929.127500", "122931.127500", "122933.127500", "122935.127500", "122937.127500", "122939.127500", "122941.127500", "122943.127500", "122945.127500", "122947.127500", "122949.127500", "122951.127500", "122953.127500", "122955.127500", "122957.127500", "122959.127500", "123001.127500", "123003.127500", "123005.127500", "123007.127500", "123009.127500", "123011.127500", "123013.127500", "123015.127500", "123017.127500", "123019.127500", "123021.127500", "123023.127500", "123025.127500", "123027.127500", "123029.127500", "123031.127500", "123033.127500", "123035.127500", "123037.127500", "123039.127500", "123041.127500", "123043.127500", "123045.127500", "123047.127500", "123049.127500", "123051.127500", "123053.127500", "123055.127500", "123057.127500", "123059.127500", "123101.127500", "123103.127500", "123105.127500", "123107.127500", "123109.127500", "123111.127500", "123113.127500", "123115.127500", "123117.127500", "123119.127500", "123121.127500", "123123.127500", "123125.127500", "123127.127500", "123129.127500", "123131.127500", "123133.127500", "123135.127500", "123137.127500", "123139.127500", "123141.127500", "123143.127500", "123145.127500", "123147.127500", "123149.127500", "123151.127500", "123153.127500", "123155.127500", "123157.127500", "123159.127500", "123201.127500", "123203.127500", "123205.127500", "123207.127500", "123209.127500", "123211.127500", "123213.127500", "123215.127500", "123217.127500", "123219.127500", "123221.127500", "123223.127500", "123225.127500", "123227.127500", "123229.127500", "123231.127500", "123233.127500", "123235.127500", "123237.127500", "123239.127500", "123241.127500", "123243.127500", "123245.127500", "123247.127500", "123249.127500", "123251.127500", "123253.127500", "123255.127500", "123257.127500", "123259.127500", "123301.127500", "123303.127500", "123305.127500", "123307.127500", "123309.127500", "123311.127500", "123313.127500", "123315.127500", "123317.127500", "123319.127500", "123321.127500", "123323.127500", "123325.127500", "123327.127500", "123329.127500", "123331.127500", "123333.127500", "123335.127500", "123337.127500", "123339.127500", "123341.127500", "123343.127500", "123345.127500", "123347.127500", "123349.127500", "123351.127500", "123353.127500", "123355.127500", "123357.127500", "123359.127500", "123401.127500", "123403.127500", "123405.127500", "123407.127500", "123409.127500", "123411.127500", "123413.127500", "123415.127500", "123417.127500", "123419.127500", "123421.127500", "123423.127500", "123425.127500", "123427.127500", "123429.127500", "123431.127500", "123433.127500", "123435.127500", "123437.127500", "123439.130000", "123441.130000", "123443.130000", "123445.130000", "123447.130000"],
      "ContentTime": ["122748.425000", "122749.400000", "122750.402000", "122750.406000", "122751.401000", "122752.401000", "122753.402000", "122753.406000", "122754.401000", "122755.401000", "122756.402000", "122758.401000", "122800.401000", "122802.402000", "122804.402000", "122806.402000", "122808.402000", "122810.401000", "122812.402000", "122814.401000", "122816.401000", "122818.401000", "122820.402000", "122822.401000", "122824.402000", "122826.402000", "122828.402000", "122830.402000", "122832.400000", "122834.400000", "122836.401000", "122838.401000", "122840.400000", "122842.401000", "122844.402000", "122846.401000", "122848.401000", "122850.400000", "122852.400000", "122854.401000", "122856.402000", "122858.401000", "122900.401000", "122902.401000", "122904.402000", "122906.401000", "122908.400000", "122910.400000", "122912.401000", "122914.400000", "122916.401000", "122918.401000", "122920.401000", "122922.400000", "122924.400000", "122926.400000", "122928.400000", "122930.400000", "122932.400000", "122934.401000", "122936.400000", "122938.401000", "122940.401000", "122942.400000", "122944.400000", "122946.400000", "122948.400000", "122950.400000", "122952.400000", "122954.401000", "122956.401000", "122958.401000", "123000.400000", "123002.400000", "123004.401000", "123006.400000", "123008.400000", "123010.400000", "123012.400000", "123014.401000", "123016.400000", "123018.400000", "123020.400000", "123022.401000", "123024.401000", "123026.401000", "123028.401000", "123030.401000", "123032.401000", "123034.400000", "123036.400000", "123038.401000", "123040.401000", "123042.401000", "123044.401000", "123046.401000", "123048.401000", "123050.401000", "123052.401000", "123054.401000", "123056.402000", "123058.402000", "123100.402000", "123102.402000", "123104.402000", "123106.401000", "123108.402000", "123110.401000", "123112.401000", "123114.402000", "123116.410000", "123118.402000", "123120.402000", "123122.402000", "123124.401000", "123126.402000", "123128.400000", "123130.401000", "123132.401000", "123134.402000", "123136.402000", "123138.402000", "123140.402000", "123142.402000", "123144.401000", "123146.401000", "123148.402000", "123150.402000", "123152.402000", "123154.402000", "123156.403000", "123158.402000", "123200.403000", "123202.401000", "123204.401000", "123206.402000", "123208.401000", "123210.402000", "123212.402000", "123214.402000", "123216.402000", "123218.402000", "123220.401000", "123222.401000", "123224.402000", "123226.402000", "123228.403000", "123230.402000", "123232.402000", "123234.402000", "123236.400000", "123238.401000", "123240.401000", "123242.402000", "123244.402000", "123246.402000", "123248.402000", "123250.402000", "123252.402000", "123254.400000", "123256.401000", "123258.402000", "123300.402000", "123302.402000", "123304.402000", "123306.403000", "123308.402000", "123310.402000", "123312.401000", "123314.402000", "123316.402000", "123318.402000", "123320.402000", "123322.402000", "123324.403000", "123326.402000", "123328.402000", "123330.401000", "123332.401000", "123334.402000", "123336.402000", "123338.402000", "123340.402000", "123342.402000", "123344.402000", "123346.402000", "123348.401000", "123350.402000", "123352.402000", "123354.402000", "123356.402000", "123358.402000", "123400.402000", "123402.402000", "123404.401000", "123406.401000", "123408.402000", "123410.402000", "123412.402000", "123414.402000", "123416.402000", "123418.402000", "123420.402000", "123422.401000", "123424.401000", "123426.402000", "123428.402000", "123430.403000", "123432.402000", "123434.402000", "123436.402000", "123438.402000", "123440.401000", "123442.401000", "123444.403000", "123446.402000", "123448.402000", "123449.905000"],
      "InstanceCreationTime": ["122748.425000", "122749.400000", "122750.402000", "122750.406000", "122751.401000", "122752.401000", "122753.402000", "122753.406000", "122754.401000", "122755.401000", "122756.402000", "122758.401000", "122800.401000", "122802.402000", "122804.402000", "122806.402000", "122808.402000", "122810.401000", "122812.402000", "122814.401000", "122816.401000", "122818.401000", "122820.402000", "122822.401000", "122824.402000", "122826.402000", "122828.402000", "122830.402000", "122832.400000", "122834.400000", "122836.401000", "122838.401000", "122840.400000", "122842.401000", "122844.402000", "122846.401000", "122848.401000", "122850.400000", "122852.400000", "122854.401000", "122856.402000", "122858.401000", "122900.401000", "122902.401000", "122904.402000", "122906.401000", "122908.400000", "122910.400000", "122912.401000", "122914.400000", "122916.401000", "122918.401000", "122920.401000", "122922.400000", "122924.400000", "122926.400000", "122928.400000", "122930.400000", "122932.400000", "122934.401000", "122936.400000", "122938.401000", "122940.401000", "122942.400000", "122944.400000", "122946.400000", "122948.400000", "122950.400000", "122952.400000", "122954.401000", "122956.401000", "122958.401000", "123000.400000", "123002.400000", "123004.401000", "123006.400000", "123008.400000", "123010.400000", "123012.400000", "123014.401000", "123016.400000", "123018.400000", "123020.400000", "123022.401000", "123024.401000", "123026.401000", "123028.401000", "123030.401000", "123032.401000", "123034.400000", "123036.400000", "123038.401000", "123040.401000", "123042.401000", "123044.401000", "123046.401000", "123048.401000", "123050.401000", "123052.401000", "123054.401000", "123056.402000", "123058.402000", "123100.402000", "123102.402000", "123104.402000", "123106.401000", "123108.402000", "123110.401000", "123112.401000", "123114.402000", "123116.410000", "123118.402000", "123120.402000", "123122.402000", "123124.401000", "123126.402000", "123128.400000", "123130.401000", "123132.401000", "123134.402000", "123136.402000", "123138.402000", "123140.402000", "123142.402000", "123144.401000", "123146.401000", "123148.402000", "123150.402000", "123152.402000", "123154.402000", "123156.403000", "123158.402000", "123200.403000", "123202.401000", "123204.401000", "123206.402000", "123208.401000", "123210.402000", "123212.402000", "123214.402000", "123216.402000", "123218.402000", "123220.401000", "123222.401000", "123224.402000", "123226.402000", "123228.403000", "123230.402000", "123232.402000", "123234.402000", "123236.400000", "123238.401000", "123240.401000", "123242.402000", "123244.402000", "123246.402000", "123248.402000", "123250.402000", "123252.402000", "123254.400000", "123256.401000", "123258.402000", "123300.402000", "123302.402000", "123304.402000", "123306.403000", "123308.402000", "123310.402000", "123312.401000", "123314.402000", "123316.402000", "123318.402000", "123320.402000", "123322.402000", "123324.403000", "123326.402000", "123328.402000", "123330.401000", "123332.401000", "123334.402000", "123336.402000", "123338.402000", "123340.402000", "123342.402000", "123344.402000", "123346.402000", "123348.401000", "123350.402000", "123352.402000", "123354.402000", "123356.402000", "123358.402000", "123400.402000", "123402.402000", "123404.401000", "123406.401000", "123408.402000", "123410.402000", "123412.402000", "123414.402000", "123416.402000", "123418.402000", "123420.402000", "123422.401000", "123424.401000", "123426.402000", "123428.402000", "123430.403000", "123432.402000", "123434.402000", "123436.402000", "123438.402000", "123440.401000", "123442.401000", "123444.403000", "123446.402000", "123448.402000", "123449.905000"],
      "InstanceNumber": [1, 2, 3, 4, 5, 6, 7, 8, 9, 10, 11, 12, 13, 14, 15, 16, 17, 18, 19, 20, 21, 22, 23, 24, 25, 26, 27, 28, 29, 30, 31, 32, 33, 34, 35, 36, 37, 38, 39, 40, 41, 42, 43, 44, 45, 46, 47, 48, 49, 50, 51, 52, 53, 54, 55, 56, 57, 58, 59, 60, 61, 62, 63, 64, 65, 66, 67, 68, 69, 70, 71, 72, 73, 74, 75, 76, 77, 78, 79, 80, 81, 82, 83, 84, 85, 86, 87, 88, 89, 90, 91, 92, 93, 94, 95, 96, 97, 98, 99, 100, 101, 102, 103, 104, 105, 106, 107, 108, 109, 110, 111, 112, 113, 114, 115, 116, 117, 118, 119, 120, 121, 122, 123, 124, 125, 126, 127, 128, 129, 130, 131, 132, 133, 134, 135, 136, 137, 138, 139, 140, 141, 142, 143, 144, 145, 146, 147, 148, 149, 150, 151, 152, 153, 154, 155, 156, 157, 158, 159, 160, 161, 162, 163, 164, 165, 166, 167, 168, 169, 170, 171, 172, 173, 174, 175, 176, 177, 178, 179, 180, 181, 182, 183, 184, 185, 186, 187, 188, 189, 190, 191, 192, 193, 194, 195, 196, 197, 198, 199, 200, 201, 202, 203, 204, 205, 206, 207, 208, 209, 210, 211, 212, 213, 214, 215, 216, 217, 218],
      "WindowCenter": [17200.0, 17188.0, 17172.0, 17164.0, 17156.0, 17152.0, 17142.0, 17142.0, 17118.0, 17132.0, 17136.0, 17146.0, 17127.0, 17125.0, 17118.0, 17128.0, 17124.0, 17122.0, 17146.0, 17141.0, 17145.0, 17135.0, 17130.0, 17142.0, 17137.0, 17130.0, 17128.0, 17108.0, 17123.0, 17110.0, 17108.0, 17100.0, 17092.0, 17099.0, 17113.0, 17119.0, 17118.0, 17114.0, 17110.0, 17118.0, 17111.0, 17135.0, 17118.0, 17126.0, 17114.0, 17105.0, 17126.0, 17142.0, 17131.0, 17161.0, 17130.0, 17122.0, 17119.0, 17130.0, 17129.0, 17144.0, 17118.0, 17107.0, 17108.0, 17102.0, 17101.0, 17099.0, 17108.0, 17109.0, 17112.0, 17144.0, 17132.0, 17139.0, 17127.0, 17145.0, 17132.0, 17122.0, 17103.0, 17106.0, 17107.0, 17107.0, 17109.0, 17128.0, 17135.0, 17121.0, 17116.0, 17106.0, 17101.0, 17118.0, 17099.0, 17129.0, 17139.0, 17130.0, 17134.0, 17142.0, 17127.0, 17124.0, 17117.0, 17125.0, 17131.0, 17126.0, 17105.0, 17106.0, 17131.0, 17125.0, 17121.0, 17120.0, 17109.0, 17130.0, 17135.0, 17146.0, 17120.0, 17112.0, 17121.0, 17140.0, 17149.0, 17136.0, 17131.0, 17123.0, 17128.0, 17136.0, 17145.0, 17139.0, 17168.0, 17163.0, 17137.0, 17146.0, 17147.0, 17133.0, 17126.0, 17108.0, 17109.0, 17111.0, 17108.0, 17136.0, 17182.0, 17183.0, 17136.0, 17104.0, 17073.0, 17069.0, 17055.0, 17062.0, 17084.0, 17099.0, 17126.0, 17149.0, 17153.0, 17131.0, 17136.0, 17130.0, 17157.0, 17157.0, 17140.0, 17113.0, 17103.0, 17120.0, 17119.0, 17121.0, 17111.0, 17115.0, 17138.0, 17140.0, 17150.0, 17158.0, 17167.0, 17160.0, 17139.0, 17132.0, 17139.0, 17139.0, 17158.0, 17144.0, 17133.0, 17121.0, 17136.0, 17142.0, 17141.0, 17126.0, 17132.0, 17121.0, 17119.0, 17131.0, 17117.0, 17125.0, 17114.0, 17122.0, 17132.0, 17142.0, 17150.0, 17134.0, 17122.0, 17117.0, 17121.0, 17107.0, 17099.0, 17123.0, 17115.0, 17115.0, 17126.0, 17123.0, 17125.0, 17119.0, 17106.0, 17111.0, 17118.0, 17110.0, 17126.0, 17153.0, 17134.0, 17114.0, 17127.0, 17102.0, 17128.0, 17156.0, 17124.0, 17106.0, 17108.0, 17086.0, 17073.0, 17095.0, 17138.0, 17132.0],
      "WindowWidth": [46458.0, 46356.0, 46331.0, 46311.0, 46292.0, 46236.0, 46243.0, 46255.0, 46209.0, 46209.0, 46214.0, 46245.0, 46256.0, 46254.0, 46250.0, 46258.0, 46267.0, 46304.0, 46310.0, 46318.0, 46322.0, 46301.0, 46310.0, 46305.0, 46286.0, 46308.0, 46229.0, 46186.0, 46136.0, 46178.0, 46186.0, 46151.0, 46160.0, 46125.0, 46137.0, 46169.0, 46141.0, 46113.0, 46125.0, 46146.0, 46151.0, 46182.0, 46196.0, 46190.0, 46192.0, 46226.0, 46256.0, 46267.0, 46296.0, 46217.0, 46222.0, 46215.0, 46211.0, 46271.0, 46284.0, 46244.0, 46223.0, 46188.0, 46150.0, 46131.0, 46116.0, 46101.0, 46150.0, 46217.0, 46258.0, 46309.0, 46286.0, 46214.0, 46254.0, 46255.0, 46204.0, 46117.0, 46078.0, 46070.0, 46123.0, 46134.0, 46162.0, 46189.0, 46221.0, 46224.0, 46154.0, 46162.0, 46236.0, 46277.0, 46263.0, 46246.0, 46396.0, 46348.0, 46262.0, 46230.0, 46139.0, 46164.0, 46183.0, 46163.0, 46180.0, 46177.0, 46134.0, 46135.0, 46182.0, 46176.0, 46200.0, 46251.0, 46217.0, 46327.0, 46340.0, 46295.0, 46183.0, 46152.0, 46113.0, 46229.0, 46209.0, 46143.0, 46154.0, 46134.0, 46205.0, 46276.0, 46259.0, 46333.0, 46356.0, 46284.0, 46225.0, 46207.0, 46262.0, 46233.0, 46188.0, 46175.0, 46138.0, 46127.0, 46191.0, 46316.0, 46506.0, 46465.0, 46235.0, 45990.0, 45812.0, 45757.0, 45786.0, 45828.0, 45938.0, 46093.0, 46219.0, 46327.0, 46357.0, 46313.0, 46307.0, 46354.0, 46426.0, 46397.0, 46316.0, 46228.0, 46194.0, 46170.0, 46197.0, 46266.0, 46245.0, 46285.0, 46338.0, 46381.0, 46432.0, 46462.0, 46414.0, 46384.0, 46289.0, 46310.0, 46314.0, 46380.0, 46396.0, 46332.0, 46272.0, 46277.0, 46277.0, 46257.0, 46230.0, 46230.0, 46181.0, 46200.0, 46238.0, 46207.0, 46157.0, 46180.0, 46234.0, 46294.0, 46392.0, 46385.0, 46284.0, 46169.0, 46189.0, 46199.0, 46226.0, 46241.0, 46222.0, 46215.0, 46224.0, 46237.0, 46271.0, 46226.0, 46255.0, 46198.0, 46135.0, 46140.0, 46212.0, 46353.0, 46416.0, 46422.0, 46325.0, 46219.0, 46232.0, 46252.0, 46339.0, 46397.0, 46286.0, 46236.0, 46135.0, 46120.0, 46098.0, 46144.0, 46257.0, 46262.0]
    },
    "slices": {}
  }
}