{
  "AcquisitionMatrixPE": 116,
  "AcquisitionNumber": 1,
  "AcquisitionTime": "11:45:28.375000",
  "BandwidthPerPixelPhaseEncode": 18.539,
  "BaseResolution": 116,
  "BodyPartExamined": "HEAD",
  "ConsistencyInfo": "N4_VD13D_LATEST_20130810",
  "ConversionSoftware": "dcm2niix",
  "ConversionSoftwareVersion": "v1.0.20190410  (JP2:OpenJPEG) (JP-LS:CharLS) GCC5.5.0",
  "DerivedVendorReportedEchoSpacing": 0.000930006,
  "DeviceSerialNumber": "66014",
  "DwellTime": 3e-06,
  "EchoTime": 0.03,
  "EchoTrainLength": 50,
  "EffectiveEchoSpacing": 0.000465003,
  "FlipAngle": 81,
  "ImageComments": "Unaliased_MB3_PE4",
  "ImageOrientationPatientDICOM": [0.999006, 0.0428369, -0.0123283, -0.0436176, 0.996436, -0.0721958],
  "ImageType": [
    "ORIGINAL",
    "PRIMARY",
    "M",
    "MB",
    "ND",
    "MOSAIC"
],
  "ImagingFrequency": 123.261,
  "InPlanePhaseEncodingDirectionDICOM": "COL",
  "InstitutionAddress": "Yiheyuan_Road_5_Beijing_Haidian_CN_100871",
  "InstitutionName": "Peking_University",
  "InstitutionalDepartmentName": "Department",
  "MRAcquisitionType": "2D",
  "MagneticFieldStrength": 3,
  "Manufacturer": "Siemens",
  "ManufacturersModelName": "Prisma",
  "Modality": "MR",
  "MultibandAccelerationFactor": 3,
  "ParallelReductionFactorInPlane": 2,
  "PartialFourier": 0.875,
  "PatientPosition": "HFS",
  "PercentPhaseFOV": 100,
  "PhaseEncodingDirection": "j-",
  "PhaseEncodingSteps": 101,
  "PhaseResolution": 1,
  "PixelBandwidth": 1435,
  "ProcedureStepDescription": "Research_Projects_64CH",
  "ProtocolName": "mbep2d_bold_MB3_learn1",
  "PulseSequenceDetails": "%CustomerSeq%_cmrr_mbep2d_bold",
  "ReceiveCoilActiveElements": "HC1-7",
  "ReceiveCoilName": "HeadNeck_64",
  "ReconMatrixPE": 116,
  "RefLinesPE": 44,
  "RepetitionTime": 2,
  "SAR": 0.0606598,
  "ScanOptions": "PFP_FS",
  "ScanningSequence": "EP",
  "SequenceName": "epfid2d1_116",
  "SequenceVariant": "SK_SS",
  "SeriesDescription": "mbep2d_bold_MB3_learn1",
  "SeriesNumber": 6,
  "ShimSetting": [-3455, -2089, -1917, 512, -24, -228, 13, 48],
  "SliceThickness": 1.9,
  "SliceTiming": [0, 0.9075, 1.815, 0.7425, 1.65, 0.5775, 1.485, 0.4125, 1.32, 0.2475, 1.155, 0.0825, 0.99, 1.8975, 0.825, 1.7325, 0.66, 1.5675, 0.495, 1.4025, 0.33, 1.2375, 0.165, 1.0725, 0, 0.9075, 1.815, 0.7425, 1.65, 0.5775, 1.485, 0.4125, 1.32, 0.2475, 1.155, 0.0825, 0.99, 1.8975, 0.825, 1.7325, 0.66, 1.5675, 0.495, 1.4025, 0.33, 1.2375, 0.165, 1.0725, 0, 0.9075, 1.815, 0.7425, 1.65, 0.5775, 1.485, 0.4125, 1.32, 0.2475, 1.155, 0.0825, 0.99, 1.8975, 0.825, 1.7325, 0.66, 1.5675, 0.495, 1.4025, 0.33, 1.2375, 0.165, 1.0725],
  "SoftwareVersions": "syngo_MR_D13D",
  "SpacingBetweenSlices": 1.9,
  "StationName": "AWP66014",
  "TaskName": "updating",
  "TotalReadoutTime": 0.0534753,
  "TxRefAmp": 220.278,
  "WipMemBlock": "64fc3dd7-02e1-4415-b203-71e60f1582b1||Sequence: vd13d/master r/0735857; Nov 19 2014 09:21:40 by eja",
  "dcmmeta_affine": [
    [-1.8946665525436401, -0.08272307366132736, -0.017464250326156616, 114.48136138916016],
    [-0.08124234527349472, 1.8897929191589355, -0.1380573958158493, -90.78335571289062],
    [-0.02338123694062233, 0.13692310452461243, 1.8948971033096313, -66.28165435791016],
    [0.0, 0.0, 0.0, 1.0]
],
  "dcmmeta_reorient_transform": [
    [0.0, -1.0, 0.0, 115.0],
    [1.0, 0.0, 0.0, 0.0],
    [0.0, 0.0, 1.0, 0.0],
    [0.0, 0.0, 0.0, 1.0]
],
  "dcmmeta_shape": [116, 116, 72, 218],
  "dcmmeta_slice_dim": 2,
  "dcmmeta_version": 0.6,
  "global": {
    "const": {
      "AcquisitionMatrix": [116, 0, 0, 116],
      "AngioFlag": "N",
      "BitsAllocated": 16,
      "BitsStored": 16,
      "BodyPartExamined": "HEAD",
      "Columns": 1044,
      "EchoNumbers": 1,
      "EchoTime": 30.0,
      "EchoTrainLength": 50,
      "FlipAngle": 81.0,
      "HighBit": 15,
      "ImageOrientationPatient": [0.999006013885, 0.04283687115657, -0.0123282882481, -0.0436176188326, 0.99643628374613, -0.072195815402],
      "ImagePositionPatient": [-945.70999916071, -1041.1032153481, 23.845710023983],
      "ImageType": [
        "ORIGINAL",
        "PRIMARY",
        "M",
        "MB",
        "ND",
        "MOSAIC"
],
      "ImagedNucleus": "1H",
      "ImagingFrequency": 123.260562,
      "InPlanePhaseEncodingDirection": "COL",
      "LargestImagePixelValue": 65535,
      "MRAcquisitionType": "2D",
      "MagneticFieldStrength": 3.0,
      "Manufacturer": "SIEMENS",
      "ManufacturerModelName": "Prisma",
      "Modality": "MR",
      "NumberOfAverages": 1.0,
      "NumberOfPhaseEncodingSteps": 101,
      "PercentPhaseFieldOfView": 100.0,
      "PercentSampling": 100.0,
      "PerformedProcedureStepStartTime": "112721.382000",
      "PhotometricInterpretation": "MONOCHROME2",
      "PixelBandwidth": 1435.0,
      "PixelRepresentation": 0,
      "PixelSpacing": [1.8965517282486, 1.8965517282486],
      "ProtocolName": "mbep2d_bold_MB3_learn1",
      "RepetitionTime": 2000.0,
      "Rows": 1044,
      "SAR": 0.0606598299015,
      "SamplesPerPixel": 1,
      "ScanOptions": [
        "PFP",
        "FS"
],
      "ScanningSequence": "EP",
      "SequenceName": "epfid2d1_116",
      "SequenceVariant": [
        "SK",
        "SS"
],
      "SeriesDescription": "mbep2d_bold_MB3_learn1",
      "SeriesNumber": 6,
      "SeriesTime": "114543.159000",
      "SliceLocation": -60.559443026891,
      "SliceThickness": 1.8999999761581,
      "SmallestImagePixelValue": 0,
      "SoftwareVersions": "syngo MR D13D",
      "SpacingBetweenSlices": 1.9000000025783,
      "SpecificCharacterSet": "ISO_IR 100",
      "StudyID": "1",
      "StudyTime": "112721.293000",
      "TimeOfLastCalibration": ["123723.000000", "123723.000000"],
      "TransmitCoilName": "Body",
      "VariableFlipAngleFlag": "N",
      "WindowCenterWidthExplanation": "Algo1",
      "dBdt": 0.0},
    "slices": {}
  },
  "time": {
    "samples": {
      "AcquisitionNumber": [1, 2, 3, 4, 5, 6, 7, 8, 9, 10, 11, 12, 13, 14, 15, 16, 17, 18, 19, 20, 21, 22, 23, 24, 25, 26, 27, 28, 29, 30, 31, 32, 33, 34, 35, 36, 37, 38, 39, 40, 41, 42, 43, 44, 45, 46, 47, 48, 49, 50, 51, 52, 53, 54, 55, 56, 57, 58, 59, 60, 61, 62, 63, 64, 65, 66, 67, 68, 69, 70, 71, 72, 73, 74, 75, 76, 77, 78, 79, 80, 81, 82, 83, 84, 85, 86, 87, 88, 89, 90, 91, 92, 93, 94, 95, 96, 97, 98, 99, 100, 101, 102, 103, 104, 105, 106, 107, 108, 109, 110, 111, 112, 113, 114, 115, 116, 117, 118, 119, 120, 121, 122, 123, 124, 125, 126, 127, 128, 129, 130, 131, 132, 133, 134, 135, 136, 137, 138, 139, 140, 141, 142, 143, 144, 145, 146, 147, 148, 149, 150, 151, 152, 153, 154, 155, 156, 157, 158, 159, 160, 161, 162, 163, 164, 165, 166, 167, 168, 169, 170, 171, 172, 173, 174, 175, 176, 177, 178, 179, 180, 181, 182, 183, 184, 185, 186, 187, 188, 189, 190, 191, 192, 193, 194, 195, 196, 197, 198, 199, 200, 201, 202, 203, 204, 205, 206, 207, 208, 209, 210, 211, 212, 213, 214, 215, 216, 217, 218],
      "AcquisitionTime": ["114528.375000", "114530.375000", "114532.375000", "114534.375000", "114536.375000", "114538.375000", "114540.375000", "114542.375000", "114544.375000", "114546.375000", "114548.375000", "114550.375000", "114552.375000", "114554.375000", "114556.375000", "114558.375000", "114600.375000", "114602.375000", "114604.375000", "114606.375000", "114608.375000", "114610.375000", "114612.375000", "114614.375000", "114616.375000", "114618.375000", "114620.375000", "114622.375000", "114624.375000", "114626.375000", "114628.375000", "114630.375000", "114632.375000", "114634.375000", "114636.375000", "114638.375000", "114640.375000", "114642.375000", "114644.375000", "114646.375000", "114648.375000", "114650.375000", "114652.375000", "114654.375000", "114656.375000", "114658.375000", "114700.375000", "114702.375000", "114704.375000", "114706.375000", "114708.375000", "114710.375000", "114712.375000", "114714.375000", "114716.375000", "114718.375000", "114720.375000", "114722.375000", "114724.375000", "114726.375000", "114728.375000", "114730.375000", "114732.375000", "114734.375000", "114736.375000", "114738.375000", "114740.375000", "114742.375000", "114744.375000", "114746.375000", "114748.375000", "114750.375000", "114752.375000", "114754.375000", "114756.375000", "114758.375000", "114800.375000", "114802.375000", "114804.375000", "114806.375000", "114808.375000", "114810.375000", "114812.375000", "114814.375000", "114816.375000", "114818.375000", "114820.375000", "114822.375000", "114824.375000", "114826.375000", "114828.375000", "114830.375000", "114832.375000", "114834.375000", "114836.375000", "114838.375000", "114840.375000", "114842.375000", "114844.375000", "114846.375000", "114848.375000", "114850.375000", "114852.375000", "114854.375000", "114856.375000", "114858.375000", "114900.375000", "114902.375000", "114904.375000", "114906.375000", "114908.375000", "114910.375000", "114912.375000", "114914.375000", "114916.375000", "114918.375000", "114920.375000", "114922.375000", "114924.375000", "114926.375000", "114928.375000", "114930.375000", "114932.375000", "114934.375000", "114936.375000", "114938.375000", "114940.375000", "114942.375000", "114944.375000", "114946.375000", "114948.375000", "114950.375000", "114952.375000", "114954.375000", "114956.375000", "114958.375000", "115000.375000", "115002.375000", "115004.375000", "115006.375000", "115008.375000", "115010.375000", "115012.375000", "115014.375000", "115016.375000", "115018.375000", "115020.375000", "115022.375000", "115024.375000", "115026.375000", "115028.375000", "115030.375000", "115032.375000", "115034.375000", "115036.375000", "115038.375000", "115040.375000", "115042.375000", "115044.375000", "115046.375000", "115048.375000", "115050.375000", "115052.375000", "115054.375000", "115056.375000", "115058.375000", "115100.375000", "115102.375000", "115104.375000", "115106.375000", "115108.375000", "115110.375000", "115112.375000", "115114.375000", "115116.375000", "115118.375000", "115120.375000", "115122.375000", "115124.375000", "115126.375000", "115128.375000", "115130.375000", "115132.375000", "115134.375000", "115136.375000", "115138.375000", "115140.375000", "115142.375000", "115144.375000", "115146.375000", "115148.375000", "115150.375000", "115152.375000", "115154.375000", "115156.375000", "115158.375000", "115200.375000", "115202.375000", "115204.375000", "115206.375000", "115208.375000", "115210.375000", "115212.375000", "115214.375000", "115216.375000", "115218.375000", "115220.375000", "115222.375000", "115224.375000", "115226.375000", "115228.375000", "115230.375000", "115232.375000", "115234.375000", "115236.375000", "115238.375000", "115240.375000", "115242.375000"],
      "ContentTime": ["114543.164000", "114544.157000", "114544.161000", "114545.157000", "114546.159000", "114546.164000", "114547.158000", "114548.158000", "114549.158000", "114550.158000", "114551.158000", "114553.158000", "114555.158000", "114557.158000", "114559.158000", "114601.158000", "114603.158000", "114605.159000", "114607.159000", "114609.158000", "114611.158000", "114613.158000", "114615.158000", "114617.158000", "114619.158000", "114621.159000", "114623.159000", "114625.159000", "114627.158000", "114629.158000", "114631.158000", "114633.158000", "114635.158000", "114637.158000", "114639.159000", "114641.157000", "114643.159000", "114645.158000", "114647.158000", "114649.158000", "114651.158000", "114653.158000", "114655.158000", "114657.159000", "114659.159000", "114701.159000", "114703.158000", "114705.158000", "114707.156000", "114709.157000", "114711.156000", "114713.158000", "114715.159000", "114717.159000", "114719.158000", "114721.158000", "114723.158000", "114725.158000", "114727.158000", "114729.158000", "114731.159000", "114733.159000", "114735.159000", "114737.158000", "114739.158000", "114741.158000", "114743.158000", "114745.157000", "114747.158000", "114749.159000", "114751.159000", "114753.159000", "114755.158000", "114757.158000", "114759.159000", "114801.157000", "114803.158000", "114805.158000", "114807.159000", "114809.159000", "114811.160000", "114813.158000", "114815.158000", "114817.158000", "114819.158000", "114821.159000", "114823.158000", "114825.159000", "114827.159000", "114829.158000", "114831.158000", "114833.158000", "114835.158000", "114837.158000", "114839.159000", "114841.159000", "114843.160000", "114845.159000", "114847.158000", "114849.167000", "114851.158000", "114853.158000", "114855.159000", "114857.158000", "114859.159000", "114901.158000", "114903.159000", "114905.158000", "114907.158000", "114909.158000", "114911.158000", "114913.156000", "114915.158000", "114917.159000", "114919.160000", "114921.159000", "114923.158000", "114925.158000", "114927.158000", "114929.158000", "114931.158000", "114933.158000", "114935.159000", "114937.159000", "114939.158000", "114941.158000", "114943.158000", "114945.158000", "114947.158000", "114949.158000", "114951.159000", "114953.159000", "114955.159000", "114957.158000", "114959.158000", "115001.158000", "115003.159000", "115005.158000", "115007.158000", "115009.159000", "115011.159000", "115013.159000", "115015.158000", "115017.158000", "115019.158000", "115021.158000", "115023.158000", "115025.158000", "115027.159000", "115029.158000", "115031.159000", "115033.158000", "115035.158000", "115037.158000", "115039.158000", "115041.158000", "115043.159000", "115045.159000", "115047.159000", "115049.157000", "115051.158000", "115053.158000", "115055.158000", "115057.158000", "115059.158000", "115101.160000", "115103.159000", "115105.159000", "115107.158000", "115109.159000", "115111.158000", "115113.159000", "115115.158000", "115117.158000", "115119.159000", "115121.158000", "115123.159000", "115125.157000", "115127.158000", "115129.158000", "115131.158000", "115133.158000", "115135.159000", "115137.159000", "115139.159000", "115141.159000", "115143.158000", "115145.158000", "115147.158000", "115149.158000", "115151.158000", "115153.159000", "115155.159000", "115157.158000", "115159.158000", "115201.158000", "115203.158000", "115205.158000", "115207.158000", "115209.158000", "115211.159000", "115213.159000", "115215.160000", "115217.158000", "115219.158000", "115221.158000", "115223.158000", "115225.158000", "115227.158000", "115229.159000", "115231.159000", "115233.159000", "115235.158000", "115237.157000", "115239.158000", "115241.158000", "115243.158000", "115244.929000"],
      "InstanceCreationTime": ["114543.164000", "114544.157000", "114544.161000", "114545.157000", "114546.159000", "114546.164000", "114547.158000", "114548.158000", "114549.158000", "114550.158000", "114551.158000", "114553.158000", "114555.158000", "114557.158000", "114559.158000", "114601.158000", "114603.158000", "114605.159000", "114607.159000", "114609.158000", "114611.158000", "114613.158000", "114615.158000", "114617.158000", "114619.158000", "114621.159000", "114623.159000", "114625.159000", "114627.158000", "114629.158000", "114631.158000", "114633.158000", "114635.158000", "114637.158000", "114639.159000", "114641.157000", "114643.159000", "114645.158000", "114647.158000", "114649.158000", "114651.158000", "114653.158000", "114655.158000", "114657.159000", "114659.159000", "114701.159000", "114703.158000", "114705.158000", "114707.156000", "114709.157000", "114711.156000", "114713.158000", "114715.159000", "114717.159000", "114719.158000", "114721.158000", "114723.158000", "114725.158000", "114727.158000", "114729.158000", "114731.159000", "114733.159000", "114735.159000", "114737.158000", "114739.158000", "114741.158000", "114743.158000", "114745.157000", "114747.158000", "114749.159000", "114751.159000", "114753.159000", "114755.158000", "114757.158000", "114759.159000", "114801.157000", "114803.158000", "114805.158000", "114807.159000", "114809.159000", "114811.160000", "114813.158000", "114815.158000", "114817.158000", "114819.158000", "114821.159000", "114823.158000", "114825.159000", "114827.159000", "114829.158000", "114831.158000", "114833.158000", "114835.158000", "114837.158000", "114839.159000", "114841.159000", "114843.160000", "114845.159000", "114847.158000", "114849.167000", "114851.158000", "114853.158000", "114855.159000", "114857.158000", "114859.159000", "114901.158000", "114903.159000", "114905.158000", "114907.158000", "114909.158000", "114911.158000", "114913.156000", "114915.158000", "114917.159000", "114919.160000", "114921.159000", "114923.158000", "114925.158000", "114927.158000", "114929.158000", "114931.158000", "114933.158000", "114935.159000", "114937.159000", "114939.158000", "114941.158000", "114943.158000", "114945.158000", "114947.158000", "114949.158000", "114951.159000", "114953.159000", "114955.159000", "114957.158000", "114959.158000", "115001.158000", "115003.159000", "115005.158000", "115007.158000", "115009.159000", "115011.159000", "115013.159000", "115015.158000", "115017.158000", "115019.158000", "115021.158000", "115023.158000", "115025.158000", "115027.159000", "115029.158000", "115031.159000", "115033.158000", "115035.158000", "115037.158000", "115039.158000", "115041.158000", "115043.159000", "115045.159000", "115047.159000", "115049.157000", "115051.158000", "115053.158000", "115055.158000", "115057.158000", "115059.158000", "115101.160000", "115103.159000", "115105.159000", "115107.158000", "115109.159000", "115111.158000", "115113.159000", "115115.158000", "115117.158000", "115119.159000", "115121.158000", "115123.159000", "115125.157000", "115127.158000", "115129.158000", "115131.158000", "115133.158000", "115135.159000", "115137.159000", "115139.159000", "115141.159000", "115143.158000", "115145.158000", "115147.158000", "115149.158000", "115151.158000", "115153.159000", "115155.159000", "115157.158000", "115159.158000", "115201.158000", "115203.158000", "115205.158000", "115207.158000", "115209.158000", "115211.159000", "115213.159000", "115215.160000", "115217.158000", "115219.158000", "115221.158000", "115223.158000", "115225.158000", "115227.158000", "115229.159000", "115231.159000", "115233.159000", "115235.158000", "115237.157000", "115239.158000", "115241.158000", "115243.158000", "115244.929000"],
      "InstanceNumber": [1, 2, 3, 4, 5, 6, 7, 8, 9, 10, 11, 12, 13, 14, 15, 16, 17, 18, 19, 20, 21, 22, 23, 24, 25, 26, 27, 28, 29, 30, 31, 32, 33, 34, 35, 36, 37, 38, 39, 40, 41, 42, 43, 44, 45, 46, 47, 48, 49, 50, 51, 52, 53, 54, 55, 56, 57, 58, 59, 60, 61, 62, 63, 64, 65, 66, 67, 68, 69, 70, 71, 72, 73, 74, 75, 76, 77, 78, 79, 80, 81, 82, 83, 84, 85, 86, 87, 88, 89, 90, 91, 92, 93, 94, 95, 96, 97, 98, 99, 100, 101, 102, 103, 104, 105, 106, 107, 108, 109, 110, 111, 112, 113, 114, 115, 116, 117, 118, 119, 120, 121, 122, 123, 124, 125, 126, 127, 128, 129, 130, 131, 132, 133, 134, 135, 136, 137, 138, 139, 140, 141, 142, 143, 144, 145, 146, 147, 148, 149, 150, 151, 152, 153, 154, 155, 156, 157, 158, 159, 160, 161, 162, 163, 164, 165, 166, 167, 168, 169, 170, 171, 172, 173, 174, 175, 176, 177, 178, 179, 180, 181, 182, 183, 184, 185, 186, 187, 188, 189, 190, 191, 192, 193, 194, 195, 196, 197, 198, 199, 200, 201, 202, 203, 204, 205, 206, 207, 208, 209, 210, 211, 212, 213, 214, 215, 216, 217, 218],
      "WindowCenter": [17019.0, 16988.0, 16992.0, 16983.0, 16982.0, 16962.0, 16958.0, 16952.0, 16941.0, 16966.0, 16953.0, 16974.0, 16971.0, 16953.0, 16956.0, 16940.0, 16948.0, 16950.0, 16946.0, 16937.0, 16943.0, 16933.0, 16939.0, 16935.0, 16951.0, 16941.0, 16944.0, 16940.0, 16958.0, 16960.0, 16949.0, 16940.0, 16930.0, 16935.0, 16945.0, 16959.0, 16962.0, 16953.0, 16941.0, 16926.0, 16940.0, 16950.0, 16956.0, 16959.0, 16971.0, 16969.0, 16958.0, 16949.0, 16956.0, 16978.0, 16968.0, 16968.0, 16970.0, 16954.0, 16972.0, 16995.0, 17003.0, 16993.0, 16985.0, 16979.0, 16981.0, 16987.0, 16962.0, 16984.0, 16969.0, 16953.0, 16951.0, 16967.0, 16985.0, 16977.0, 16954.0, 16972.0, 16983.0, 16967.0, 16970.0, 16980.0, 16967.0, 16960.0, 16971.0, 16987.0, 16981.0, 16999.0, 16986.0, 16979.0, 16977.0, 16974.0, 16968.0, 16961.0, 16965.0, 16960.0, 16970.0, 16965.0, 16978.0, 16974.0, 16979.0, 16996.0, 16975.0, 16982.0, 16979.0, 16971.0, 16974.0, 16974.0, 16983.0, 16980.0, 16975.0, 16978.0, 16973.0, 16986.0, 16970.0, 16964.0, 16971.0, 16969.0, 16962.0, 16982.0, 17000.0, 16997.0, 16996.0, 16999.0, 16995.0, 16981.0, 16995.0, 16996.0, 16983.0, 16989.0, 16983.0, 16971.0, 16981.0, 16992.0, 16986.0, 16983.0, 16972.0, 16983.0, 16970.0, 16971.0, 16967.0, 16969.0, 16987.0, 16975.0, 16989.0, 16992.0, 16993.0, 17004.0, 17005.0, 16994.0, 16982.0, 16958.0, 16983.0, 17001.0, 16993.0, 17004.0, 16995.0, 16981.0, 16972.0, 16969.0, 16978.0, 16987.0, 16980.0, 16986.0, 16979.0, 16979.0, 16977.0, 16985.0, 17002.0, 16994.0, 16994.0, 16994.0, 16977.0, 16986.0, 16997.0, 16999.0, 16994.0, 16998.0, 16999.0, 17015.0, 17023.0, 17031.0, 17011.0, 16989.0, 16989.0, 17004.0, 17014.0, 17012.0, 17009.0, 17000.0, 16998.0, 17024.0, 17017.0, 17002.0, 17004.0, 16994.0, 16984.0, 17009.0, 16999.0, 16997.0, 17000.0, 16999.0, 17013.0, 17008.0, 17009.0, 16998.0, 17004.0, 16978.0, 17001.0, 17014.0, 16994.0, 16996.0, 16975.0, 16967.0, 16986.0, 16995.0, 16987.0, 16990.0, 16989.0, 16990.0, 16981.0, 17016.0, 17022.0, 17002.0],
      "WindowWidth": [46116.0, 46061.0, 46118.0, 46151.0, 46068.0, 45947.0, 45904.0, 45914.0, 45918.0, 45964.0, 45996.0, 46012.0, 45996.0, 45928.0, 45930.0, 45930.0, 45886.0, 45902.0, 45860.0, 45758.0, 45789.0, 45819.0, 45865.0, 45847.0, 45847.0, 45854.0, 45832.0, 45843.0, 45830.0, 45779.0, 45772.0, 45777.0, 45766.0, 45796.0, 45869.0, 45867.0, 45874.0, 45826.0, 45776.0, 45764.0, 45803.0, 45798.0, 45831.0, 45900.0, 45937.0, 45933.0, 45870.0, 45850.0, 45816.0, 45877.0, 45905.0, 45880.0, 45840.0, 45867.0, 45924.0, 45981.0, 45959.0, 45925.0, 45865.0, 45889.0, 45903.0, 45897.0, 45876.0, 45863.0, 45826.0, 45758.0, 45759.0, 45786.0, 45787.0, 45781.0, 45826.0, 45828.0, 45827.0, 45826.0, 45828.0, 45809.0, 45748.0, 45795.0, 45793.0, 45832.0, 45839.0, 45868.0, 45857.0, 45864.0, 45823.0, 45859.0, 45851.0, 45794.0, 45785.0, 45755.0, 45776.0, 45787.0, 45799.0, 45834.0, 45877.0, 45876.0, 45859.0, 45838.0, 45824.0, 45805.0, 45872.0, 45870.0, 45853.0, 45852.0, 45862.0, 45862.0, 45845.0, 45855.0, 45827.0, 45837.0, 45816.0, 45776.0, 45838.0, 45882.0, 45918.0, 45901.0, 45927.0, 45905.0, 45901.0, 45905.0, 45914.0, 45888.0, 45839.0, 45845.0, 45814.0, 45804.0, 45852.0, 45875.0, 45884.0, 45826.0, 45805.0, 45800.0, 45788.0, 45790.0, 45828.0, 45802.0, 45844.0, 45833.0, 45847.0, 45825.0, 45853.0, 45899.0, 45920.0, 45832.0, 45743.0, 45778.0, 45801.0, 45885.0, 45914.0, 45923.0, 45875.0, 45812.0, 45806.0, 45789.0, 45839.0, 45817.0, 45824.0, 45801.0, 45797.0, 45784.0, 45822.0, 45846.0, 45872.0, 45890.0, 45903.0, 45850.0, 45781.0, 45776.0, 45839.0, 45855.0, 45837.0, 45853.0, 45854.0, 45886.0, 45982.0, 45973.0, 45917.0, 45805.0, 45795.0, 45846.0, 45895.0, 45866.0, 45878.0, 45895.0, 45921.0, 45905.0, 45911.0, 45831.0, 45845.0, 45824.0, 45842.0, 45837.0, 45830.0, 45842.0, 45844.0, 45909.0, 45908.0, 45892.0, 45955.0, 45945.0, 45896.0, 45887.0, 45871.0, 45879.0, 45863.0, 45837.0, 45808.0, 45827.0, 45842.0, 45783.0, 45778.0, 45807.0, 45862.0, 45886.0, 45907.0, 45883.0, 45888.0, 45965.0]
    },
    "slices": {}
  }
}