{
  "AcquisitionMatrixPE": 116,
  "AcquisitionNumber": 1,
  "AcquisitionTime": "12:34:20.515000",
  "BandwidthPerPixelPhaseEncode": 18.539,
  "BaseResolution": 116,
  "BodyPartExamined": "HEAD",
  "ConsistencyInfo": "N4_VD13D_LATEST_20130810",
  "ConversionSoftware": "dcm2niix",
  "ConversionSoftwareVersion": "v1.0.20190410  (JP2:OpenJPEG) (JP-LS:CharLS) GCC5.5.0",
  "DerivedVendorReportedEchoSpacing": 0.000930006,
  "DeviceSerialNumber": "66014",
  "DwellTime": 3e-06,
  "EchoTime": 0.03,
  "EchoTrainLength": 50,
  "EffectiveEchoSpacing": 0.000465003,
  "FlipAngle": 81,
  "ImageComments": "Unaliased_MB3_PE4",
  "ImageOrientationPatientDICOM": [0.9999, -0.0135512, 0.00400989, 0.0139621, 0.991147, -0.132033],
  "ImageType": [
    "ORIGINAL",
    "PRIMARY",
    "M",
    "MB",
    "ND",
    "MOSAIC"
],
  "ImagingFrequency": 123.261,
  "InPlanePhaseEncodingDirectionDICOM": "COL",
  "InstitutionAddress": "Yiheyuan_Road_5_Beijing_Haidian_CN_100871",
  "InstitutionName": "Peking_University",
  "InstitutionalDepartmentName": "Department",
  "MRAcquisitionType": "2D",
  "MagneticFieldStrength": 3,
  "Manufacturer": "Siemens",
  "ManufacturersModelName": "Prisma",
  "Modality": "MR",
  "MultibandAccelerationFactor": 3,
  "ParallelReductionFactorInPlane": 2,
  "PartialFourier": 0.875,
  "PatientPosition": "HFS",
  "PercentPhaseFOV": 100,
  "PhaseEncodingDirection": "j-",
  "PhaseEncodingSteps": 101,
  "PhaseResolution": 1,
  "PixelBandwidth": 1435,
  "ProcedureStepDescription": "Research_Projects_64CH",
  "ProtocolName": "mbep2d_bold_MB3_learn5",
  "PulseSequenceDetails": "%CustomerSeq%_cmrr_mbep2d_bold",
  "ReceiveCoilActiveElements": "HC1-6",
  "ReceiveCoilName": "HeadNeck_64",
  "ReconMatrixPE": 116,
  "RefLinesPE": 44,
  "RepetitionTime": 2,
  "SAR": 0.0641984,
  "ScanOptions": "PFP_FS",
  "ScanningSequence": "EP",
  "SequenceName": "epfid2d1_116",
  "SequenceVariant": "SK_SS",
  "SeriesDescription": "mbep2d_bold_MB3_learn5",
  "SeriesNumber": 10,
  "ShimSetting": [-3444, -2095, -1949, 391, -12, -413, -37, 20],
  "SliceThickness": 1.9,
  "SliceTiming": [0, 0.9075, 1.815, 0.7425, 1.65, 0.5775, 1.485, 0.4125, 1.32, 0.2475, 1.155, 0.0825, 0.99, 1.8975, 0.825, 1.7325, 0.66, 1.5675, 0.495, 1.4025, 0.33, 1.2375, 0.165, 1.0725, 0, 0.9075, 1.815, 0.7425, 1.65, 0.5775, 1.485, 0.4125, 1.32, 0.2475, 1.155, 0.0825, 0.99, 1.8975, 0.825, 1.7325, 0.66, 1.5675, 0.495, 1.4025, 0.33, 1.2375, 0.165, 1.0725, 0, 0.9075, 1.815, 0.7425, 1.65, 0.5775, 1.485, 0.4125, 1.32, 0.2475, 1.155, 0.0825, 0.99, 1.8975, 0.825, 1.7325, 0.66, 1.5675, 0.495, 1.4025, 0.33, 1.2375, 0.165, 1.0725],
  "SoftwareVersions": "syngo_MR_D13D",
  "SpacingBetweenSlices": 1.9,
  "StationName": "AWP66014",
  "TaskName": "updating",
  "TotalReadoutTime": 0.0534753,
  "TxRefAmp": 229.312,
  "WipMemBlock": "2d47f0a5-fc1d-48ba-af5b-86f8b635eda3||Sequence: vd13d/master r/0735857; Nov 19 2014 09:21:40 by eja",
  "dcmmeta_affine": [
    [-1.8963623046875, 0.026479868218302727, 0.004151834640651941, 108.09095764160156],
    [0.02570064552128315, 1.8797614574432373, -0.25094446539878845, -91.00910949707031],
    [0.007604965474456549, 0.2504078447818756, 1.8833506107330322, -77.28755950927734],
    [0.0, 0.0, 0.0, 1.0]
],
  "dcmmeta_reorient_transform": [
    [0.0, -1.0, 0.0, 115.0],
    [1.0, 0.0, 0.0, 0.0],
    [0.0, 0.0, 1.0, 0.0],
    [0.0, 0.0, 0.0, 1.0]
],
  "dcmmeta_shape": [116, 116, 72, 218],
  "dcmmeta_slice_dim": 2,
  "dcmmeta_version": 0.6,
  "global": {
    "const": {
      "AcquisitionMatrix": [116, 0, 0, 116],
      "AngioFlag": "N",
      "BitsAllocated": 16,
      "BitsStored": 16,
      "BodyPartExamined": "HEAD",
      "Columns": 1044,
      "EchoNumbers": 1,
      "EchoTime": 30.0,
      "EchoTrainLength": 50,
      "FlipAngle": 81.0,
      "HighBit": 15,
      "ImageOrientationPatient": [0.9999001372264, -0.0135512489923, 0.00400989094344, 0.01396211231473, 0.9911469547938, -0.1320332284794],
      "ImagePositionPatient": [-1003.3349204808, -985.44768434339, 64.169877506555],
      "ImageType": [
        "ORIGINAL",
        "PRIMARY",
        "M",
        "MB",
        "ND",
        "MOSAIC"
],
      "ImagedNucleus": "1H",
      "ImagingFrequency": 123.260565,
      "InPlanePhaseEncodingDirection": "COL",
      "LargestImagePixelValue": 65535,
      "MRAcquisitionType": "2D",
      "MagneticFieldStrength": 3.0,
      "Manufacturer": "SIEMENS",
      "ManufacturerModelName": "Prisma",
      "Modality": "MR",
      "NumberOfAverages": 1.0,
      "NumberOfPhaseEncodingSteps": 101,
      "PercentPhaseFieldOfView": 100.0,
      "PercentSampling": 100.0,
      "PerformedProcedureStepStartTime": "114451.863000",
      "PhotometricInterpretation": "MONOCHROME2",
      "PixelBandwidth": 1435.0,
      "PixelRepresentation": 0,
      "PixelSpacing": [1.8965517282486, 1.8965517282486],
      "ProtocolName": "mbep2d_bold_MB3_learn5",
      "RepetitionTime": 2000.0,
      "Rows": 1044,
      "SAR": 0.06419842061781,
      "SamplesPerPixel": 1,
      "ScanOptions": [
        "PFP",
        "FS"
],
      "ScanningSequence": "EP",
      "SequenceName": "epfid2d1_116",
      "SequenceVariant": [
        "SK",
        "SS"
],
      "SeriesDescription": "mbep2d_bold_MB3_learn5",
      "SeriesNumber": 10,
      "SeriesTime": "123431.326000",
      "SliceLocation": -64.353985882947,
      "SliceThickness": 1.8999999761581,
      "SmallestImagePixelValue": 0,
      "SoftwareVersions": "syngo MR D13D",
      "SpacingBetweenSlices": 1.899999999033,
      "SpecificCharacterSet": "ISO_IR 100",
      "StudyID": "1",
      "StudyTime": "114451.782000",
      "TimeOfLastCalibration": ["123723.000000", "123723.000000"],
      "TransmitCoilName": "Body",
      "VariableFlipAngleFlag": "N",
      "WindowCenterWidthExplanation": "Algo1",
      "dBdt": 0.0},
    "slices": {}
  },
  "time": {
    "samples": {
      "AcquisitionNumber": [1, 2, 3, 4, 5, 6, 7, 8, 9, 10, 11, 12, 13, 14, 15, 16, 17, 18, 19, 20, 21, 22, 23, 24, 25, 26, 27, 28, 29, 30, 31, 32, 33, 34, 35, 36, 37, 38, 39, 40, 41, 42, 43, 44, 45, 46, 47, 48, 49, 50, 51, 52, 53, 54, 55, 56, 57, 58, 59, 60, 61, 62, 63, 64, 65, 66, 67, 68, 69, 70, 71, 72, 73, 74, 75, 76, 77, 78, 79, 80, 81, 82, 83, 84, 85, 86, 87, 88, 89, 90, 91, 92, 93, 94, 95, 96, 97, 98, 99, 100, 101, 102, 103, 104, 105, 106, 107, 108, 109, 110, 111, 112, 113, 114, 115, 116, 117, 118, 119, 120, 121, 122, 123, 124, 125, 126, 127, 128, 129, 130, 131, 132, 133, 134, 135, 136, 137, 138, 139, 140, 141, 142, 143, 144, 145, 146, 147, 148, 149, 150, 151, 152, 153, 154, 155, 156, 157, 158, 159, 160, 161, 162, 163, 164, 165, 166, 167, 168, 169, 170, 171, 172, 173, 174, 175, 176, 177, 178, 179, 180, 181, 182, 183, 184, 185, 186, 187, 188, 189, 190, 191, 192, 193, 194, 195, 196, 197, 198, 199, 200, 201, 202, 203, 204, 205, 206, 207, 208, 209, 210, 211, 212, 213, 214, 215, 216, 217, 218],
      "AcquisitionTime": ["123420.515000", "123422.515000", "123424.515000", "123426.515000", "123428.515000", "123430.515000", "123432.515000", "123434.515000", "123436.515000", "123438.515000", "123440.515000", "123442.515000", "123444.515000", "123446.515000", "123448.515000", "123450.515000", "123452.515000", "123454.515000", "123456.515000", "123458.515000", "123500.515000", "123502.515000", "123504.515000", "123506.515000", "123508.515000", "123510.515000", "123512.515000", "123514.515000", "123516.515000", "123518.515000", "123520.515000", "123522.515000", "123524.515000", "123526.515000", "123528.515000", "123530.515000", "123532.515000", "123534.515000", "123536.515000", "123538.515000", "123540.515000", "123542.515000", "123544.515000", "123546.515000", "123548.515000", "123550.515000", "123552.515000", "123554.515000", "123556.515000", "123558.515000", "123600.515000", "123602.515000", "123604.515000", "123606.515000", "123608.515000", "123610.515000", "123612.515000", "123614.515000", "123616.515000", "123618.515000", "123620.515000", "123622.515000", "123624.515000", "123626.515000", "123628.515000", "123630.515000", "123632.515000", "123634.515000", "123636.515000", "123638.515000", "123640.515000", "123642.515000", "123644.515000", "123646.515000", "123648.515000", "123650.515000", "123652.515000", "123654.515000", "123656.515000", "123658.515000", "123700.517500", "123702.517500", "123704.517500", "123706.517500", "123708.517500", "123710.517500", "123712.517500", "123714.517500", "123716.517500", "123718.517500", "123720.517500", "123722.517500", "123724.517500", "123726.517500", "123728.517500", "123730.517500", "123732.517500", "123734.517500", "123736.517500", "123738.517500", "123740.517500", "123742.517500", "123744.517500", "123746.517500", "123748.517500", "123750.517500", "123752.517500", "123754.517500", "123756.517500", "123758.517500", "123800.517500", "123802.517500", "123804.517500", "123806.517500", "123808.517500", "123810.517500", "123812.517500", "123814.517500", "123816.517500", "123818.517500", "123820.517500", "123822.517500", "123824.517500", "123826.517500", "123828.517500", "123830.517500", "123832.517500", "123834.517500", "123836.517500", "123838.517500", "123840.517500", "123842.517500", "123844.517500", "123846.517500", "123848.517500", "123850.517500", "123852.517500", "123854.517500", "123856.517500", "123858.517500", "123900.517500", "123902.517500", "123904.517500", "123906.517500", "123908.517500", "123910.517500", "123912.517500", "123914.517500", "123916.517500", "123918.517500", "123920.517500", "123922.517500", "123924.517500", "123926.517500", "123928.517500", "123930.517500", "123932.517500", "123934.517500", "123936.517500", "123938.517500", "123940.517500", "123942.517500", "123944.517500", "123946.517500", "123948.517500", "123950.517500", "123952.517500", "123954.517500", "123956.517500", "123958.517500", "124000.517500", "124002.517500", "124004.517500", "124006.517500", "124008.517500", "124010.517500", "124012.517500", "124014.517500", "124016.517500", "124018.517500", "124020.517500", "124022.517500", "124024.517500", "124026.517500", "124028.517500", "124030.517500", "124032.517500", "124034.517500", "124036.517500", "124038.517500", "124040.517500", "124042.517500", "124044.517500", "124046.517500", "124048.517500", "124050.517500", "124052.517500", "124054.517500", "124056.517500", "124058.517500", "124100.517500", "124102.517500", "124104.517500", "124106.517500", "124108.517500", "124110.517500", "124112.517500", "124114.517500", "124116.517500", "124118.517500", "124120.517500", "124122.517500", "124124.517500", "124126.517500", "124128.517500", "124130.517500", "124132.517500", "124134.517500"],
      "ContentTime": ["123431.333000", "123432.306000", "123433.308000", "123433.312000", "123434.310000", "123434.314000", "123435.308000", "123436.809000", "123438.810000", "123440.808000", "123442.806000", "123444.808000", "123446.808000", "123448.809000", "123450.809000", "123452.809000", "123454.810000", "123456.810000", "123458.808000", "123500.808000", "123502.809000", "123504.808000", "123506.807000", "123508.810000", "123510.809000", "123512.810000", "123514.810000", "123516.808000", "123518.808000", "123520.808000", "123522.808000", "123524.806000", "123526.809000", "123528.809000", "123530.810000", "123532.810000", "123534.809000", "123536.808000", "123538.808000", "123540.808000", "123542.809000", "123544.809000", "123546.809000", "123548.809000", "123550.808000", "123552.808000", "123554.808000", "123556.808000", "123558.808000", "123600.809000", "123602.809000", "123604.809000", "123606.809000", "123608.808000", "123610.808000", "123612.808000", "123614.808000", "123616.808000", "123618.809000", "123620.809000", "123622.809000", "123624.809000", "123626.808000", "123628.808000", "123630.808000", "123632.809000", "123634.809000", "123636.809000", "123638.809000", "123640.809000", "123642.809000", "123644.808000", "123646.808000", "123648.808000", "123650.808000", "123652.809000", "123654.809000", "123656.809000", "123658.809000", "123700.809000", "123702.808000", "123704.808000", "123706.808000", "123708.809000", "123710.809000", "123712.809000", "123714.809000", "123716.810000", "123718.808000", "123720.808000", "123722.808000", "123724.808000", "123726.808000", "123728.809000", "123730.809000", "123732.809000", "123734.809000", "123736.808000", "123738.808000", "123740.808000", "123742.808000", "123744.808000", "123746.809000", "123748.809000", "123750.809000", "123752.809000", "123754.808000", "123756.806000", "123758.807000", "123800.808000", "123802.809000", "123804.809000", "123806.809000", "123808.809000", "123810.808000", "123812.808000", "123814.808000", "123816.808000", "123818.808000", "123820.809000", "123822.809000", "123824.809000", "123826.809000", "123828.808000", "123830.808000", "123832.806000", "123834.808000", "123836.807000", "123838.809000", "123840.809000", "123842.809000", "123844.810000", "123846.808000", "123848.808000", "123850.807000", "123852.807000", "123854.808000", "123856.809000", "123858.809000", "123900.809000", "123902.807000", "123904.806000", "123906.808000", "123908.807000", "123910.808000", "123912.808000", "123914.809000", "123916.807000", "123918.809000", "123920.808000", "123922.808000", "123924.808000", "123926.808000", "123928.808000", "123930.809000", "123932.810000", "123934.809000", "123936.810000", "123938.808000", "123940.808000", "123942.808000", "123944.808000", "123946.809000", "123948.808000", "123950.808000", "123952.809000", "123954.809000", "123956.809000", "123958.808000", "124000.808000", "124002.808000", "124004.808000", "124006.810000", "124008.809000", "124010.809000", "124012.809000", "124014.814000", "124016.808000", "124018.808000", "124020.808000", "124022.809000", "124024.809000", "124026.809000", "124028.809000", "124030.808000", "124032.808000", "124034.809000", "124036.808000", "124038.808000", "124040.809000", "124042.809000", "124044.810000", "124046.809000", "124048.808000", "124050.809000", "124052.808000", "124054.808000", "124056.808000", "124058.810000", "124100.809000", "124102.809000", "124104.809000", "124106.808000", "124108.807000", "124110.808000", "124112.808000", "124114.808000", "124116.809000", "124118.809000", "124120.809000", "124122.809000", "124124.808000", "124126.808000", "124128.808000", "124130.808000", "124132.809000", "124134.809000", "124136.698000"],
      "InstanceCreationTime": ["123431.333000", "123432.306000", "123433.308000", "123433.312000", "123434.310000", "123434.314000", "123435.308000", "123436.809000", "123438.810000", "123440.808000", "123442.806000", "123444.808000", "123446.808000", "123448.809000", "123450.809000", "123452.809000", "123454.810000", "123456.810000", "123458.808000", "123500.808000", "123502.809000", "123504.808000", "123506.807000", "123508.810000", "123510.809000", "123512.810000", "123514.810000", "123516.808000", "123518.808000", "123520.808000", "123522.808000", "123524.806000", "123526.809000", "123528.809000", "123530.810000", "123532.810000", "123534.809000", "123536.808000", "123538.808000", "123540.808000", "123542.809000", "123544.809000", "123546.809000", "123548.809000", "123550.808000", "123552.808000", "123554.808000", "123556.808000", "123558.808000", "123600.809000", "123602.809000", "123604.809000", "123606.809000", "123608.808000", "123610.808000", "123612.808000", "123614.808000", "123616.808000", "123618.809000", "123620.809000", "123622.809000", "123624.809000", "123626.808000", "123628.808000", "123630.808000", "123632.809000", "123634.809000", "123636.809000", "123638.809000", "123640.809000", "123642.809000", "123644.808000", "123646.808000", "123648.808000", "123650.808000", "123652.809000", "123654.809000", "123656.809000", "123658.809000", "123700.809000", "123702.808000", "123704.808000", "123706.808000", "123708.809000", "123710.809000", "123712.809000", "123714.809000", "123716.810000", "123718.808000", "123720.808000", "123722.808000", "123724.808000", "123726.808000", "123728.809000", "123730.809000", "123732.809000", "123734.809000", "123736.808000", "123738.808000", "123740.808000", "123742.808000", "123744.808000", "123746.809000", "123748.809000", "123750.809000", "123752.809000", "123754.808000", "123756.806000", "123758.807000", "123800.808000", "123802.809000", "123804.809000", "123806.809000", "123808.809000", "123810.808000", "123812.808000", "123814.808000", "123816.808000", "123818.808000", "123820.809000", "123822.809000", "123824.809000", "123826.809000", "123828.808000", "123830.808000", "123832.806000", "123834.808000", "123836.807000", "123838.809000", "123840.809000", "123842.809000", "123844.810000", "123846.808000", "123848.808000", "123850.807000", "123852.807000", "123854.808000", "123856.809000", "123858.809000", "123900.809000", "123902.807000", "123904.806000", "123906.808000", "123908.807000", "123910.808000", "123912.808000", "123914.809000", "123916.807000", "123918.809000", "123920.808000", "123922.808000", "123924.808000", "123926.808000", "123928.808000", "123930.809000", "123932.810000", "123934.809000", "123936.810000", "123938.808000", "123940.808000", "123942.808000", "123944.808000", "123946.809000", "123948.808000", "123950.808000", "123952.809000", "123954.809000", "123956.809000", "123958.808000", "124000.808000", "124002.808000", "124004.808000", "124006.810000", "124008.809000", "124010.809000", "124012.809000", "124014.814000", "124016.808000", "124018.808000", "124020.808000", "124022.809000", "124024.809000", "124026.809000", "124028.809000", "124030.808000", "124032.808000", "124034.809000", "124036.808000", "124038.808000", "124040.809000", "124042.809000", "124044.810000", "124046.809000", "124048.808000", "124050.809000", "124052.808000", "124054.808000", "124056.808000", "124058.810000", "124100.809000", "124102.809000", "124104.809000", "124106.808000", "124108.807000", "124110.808000", "124112.808000", "124114.808000", "124116.809000", "124118.809000", "124120.809000", "124122.809000", "124124.808000", "124126.808000", "124128.808000", "124130.808000", "124132.809000", "124134.809000", "124136.698000"],
      "InstanceNumber": [1, 2, 3, 4, 5, 6, 7, 8, 9, 10, 11, 12, 13, 14, 15, 16, 17, 18, 19, 20, 21, 22, 23, 24, 25, 26, 27, 28, 29, 30, 31, 32, 33, 34, 35, 36, 37, 38, 39, 40, 41, 42, 43, 44, 45, 46, 47, 48, 49, 50, 51, 52, 53, 54, 55, 56, 57, 58, 59, 60, 61, 62, 63, 64, 65, 66, 67, 68, 69, 70, 71, 72, 73, 74, 75, 76, 77, 78, 79, 80, 81, 82, 83, 84, 85, 86, 87, 88, 89, 90, 91, 92, 93, 94, 95, 96, 97, 98, 99, 100, 101, 102, 103, 104, 105, 106, 107, 108, 109, 110, 111, 112, 113, 114, 115, 116, 117, 118, 119, 120, 121, 122, 123, 124, 125, 126, 127, 128, 129, 130, 131, 132, 133, 134, 135, 136, 137, 138, 139, 140, 141, 142, 143, 144, 145, 146, 147, 148, 149, 150, 151, 152, 153, 154, 155, 156, 157, 158, 159, 160, 161, 162, 163, 164, 165, 166, 167, 168, 169, 170, 171, 172, 173, 174, 175, 176, 177, 178, 179, 180, 181, 182, 183, 184, 185, 186, 187, 188, 189, 190, 191, 192, 193, 194, 195, 196, 197, 198, 199, 200, 201, 202, 203, 204, 205, 206, 207, 208, 209, 210, 211, 212, 213, 214, 215, 216, 217, 218],
      "WindowCenter": [18660.0, 18611.0, 18571.0, 18554.0, 18558.0, 18548.0, 18583.0, 18624.0, 18668.0, 18671.0, 18650.0, 18632.0, 18652.0, 18655.0, 18649.0, 18664.0, 18662.0, 18667.0, 18668.0, 18693.0, 18672.0, 18675.0, 18680.0, 18674.0, 18682.0, 18691.0, 18703.0, 18698.0, 18702.0, 18715.0, 18722.0, 18702.0, 18693.0, 18671.0, 18651.0, 18670.0, 18674.0, 18687.0, 18686.0, 18662.0, 18670.0, 18677.0, 18678.0, 18683.0, 18686.0, 18693.0, 18721.0, 18715.0, 18711.0, 18665.0, 18650.0, 18672.0, 18691.0, 18691.0, 18676.0, 18658.0, 18638.0, 18671.0, 18686.0, 18684.0, 18689.0, 18675.0, 18667.0, 18699.0, 18691.0, 18712.0, 18694.0, 18689.0, 18677.0, 18685.0, 18698.0, 18673.0, 18684.0, 18718.0, 18741.0, 18729.0, 18702.0, 18699.0, 18691.0, 18699.0, 18702.0, 18684.0, 18686.0, 18666.0, 18679.0, 18704.0, 18735.0, 18712.0, 18690.0, 18664.0, 18703.0, 18719.0, 18727.0, 18717.0, 18705.0, 18691.0, 18732.0, 18776.0, 18755.0, 18734.0, 18756.0, 18741.0, 18765.0, 18750.0, 18728.0, 18708.0, 18697.0, 18709.0, 18723.0, 18712.0, 18688.0, 18664.0, 18586.0, 18571.0, 18567.0, 18589.0, 18622.0, 18612.0, 18630.0, 18621.0, 18627.0, 18648.0, 18699.0, 18718.0, 18706.0, 18699.0, 18695.0, 18702.0, 18708.0, 18722.0, 18703.0, 18707.0, 18710.0, 18696.0, 18680.0, 18735.0, 18739.0, 18747.0, 18734.0, 18729.0, 18746.0, 18757.0, 18740.0, 18715.0, 18712.0, 18715.0, 18746.0, 18773.0, 18751.0, 18735.0, 18705.0, 18703.0, 18723.0, 18716.0, 18749.0, 18679.0, 18599.0, 18568.0, 18592.0, 18636.0, 18711.0, 18704.0, 18731.0, 18726.0, 18756.0, 18760.0, 18738.0, 18752.0, 18755.0, 18772.0, 18740.0, 18743.0, 18723.0, 18745.0, 18745.0, 18745.0, 18754.0, 18757.0, 18747.0, 18758.0, 18764.0, 18802.0, 18783.0, 18764.0, 18745.0, 18734.0, 18778.0, 18791.0, 18778.0, 18768.0, 18759.0, 18768.0, 18777.0, 18811.0, 18815.0, 18808.0, 18795.0, 18802.0, 18761.0, 18755.0, 18760.0, 18772.0, 18789.0, 18776.0, 18744.0, 18729.0, 18748.0, 18766.0, 18769.0, 18760.0, 18764.0, 18763.0, 18747.0, 18752.0, 18778.0, 18800.0, 18805.0, 18809.0],
      "WindowWidth": [48481.0, 48325.0, 48190.0, 48144.0, 48183.0, 48274.0, 48378.0, 48539.0, 48611.0, 48590.0, 48554.0, 48566.0, 48580.0, 48653.0, 48659.0, 48658.0, 48597.0, 48652.0, 48757.0, 48724.0, 48735.0, 48726.0, 48754.0, 48716.0, 48767.0, 48820.0, 48806.0, 48778.0, 48803.0, 48884.0, 48864.0, 48826.0, 48796.0, 48736.0, 48714.0, 48711.0, 48750.0, 48795.0, 48783.0, 48731.0, 48736.0, 48740.0, 48775.0, 48768.0, 48758.0, 48787.0, 48863.0, 48882.0, 48774.0, 48671.0, 48661.0, 48700.0, 48762.0, 48760.0, 48689.0, 48607.0, 48606.0, 48687.0, 48793.0, 48816.0, 48771.0, 48751.0, 48783.0, 48814.0, 48904.0, 48870.0, 48835.0, 48797.0, 48800.0, 48805.0, 48790.0, 48787.0, 48807.0, 48888.0, 48937.0, 48868.0, 48826.0, 48789.0, 48774.0, 48729.0, 48755.0, 48768.0, 48721.0, 48735.0, 48766.0, 48841.0, 48859.0, 48796.0, 48758.0, 48803.0, 48841.0, 48910.0, 48916.0, 48839.0, 48795.0, 48765.0, 48881.0, 48938.0, 48925.0, 48899.0, 48856.0, 48894.0, 48883.0, 48813.0, 48703.0, 48706.0, 48781.0, 48797.0, 48925.0, 48811.0, 48714.0, 48507.0, 48275.0, 48161.0, 48182.0, 48303.0, 48359.0, 48446.0, 48482.0, 48500.0, 48530.0, 48628.0, 48793.0, 48851.0, 48817.0, 48778.0, 48809.0, 48849.0, 48842.0, 48824.0, 48850.0, 48819.0, 48784.0, 48776.0, 48779.0, 48829.0, 48889.0, 48857.0, 48781.0, 48790.0, 48836.0, 48879.0, 48820.0, 48757.0, 48719.0, 48769.0, 48896.0, 48996.0, 48947.0, 48877.0, 48768.0, 48841.0, 48951.0, 48886.0, 48870.0, 48551.0, 48250.0, 48185.0, 48324.0, 48520.0, 48696.0, 48714.0, 48707.0, 48801.0, 48866.0, 48869.0, 48879.0, 48898.0, 48913.0, 48898.0, 48867.0, 48798.0, 48812.0, 48825.0, 48798.0, 48825.0, 48925.0, 48939.0, 48862.0, 48869.0, 48955.0, 48992.0, 48919.0, 48861.0, 48767.0, 48736.0, 48812.0, 48855.0, 48882.0, 48828.0, 48810.0, 48887.0, 48976.0, 48987.0, 48965.0, 48959.0, 48999.0, 48979.0, 48929.0, 48892.0, 48870.0, 48960.0, 48993.0, 48890.0, 48833.0, 48826.0, 48886.0, 48908.0, 48910.0, 48905.0, 48899.0, 48919.0, 48873.0, 48816.0, 48893.0, 48954.0, 49016.0, 49018.0]
    },
    "slices": {}
  }
}