{
  "AcquisitionMatrixPE": 116,
  "AcquisitionNumber": 1,
  "AcquisitionTime": "15:08:16.922500",
  "BandwidthPerPixelPhaseEncode": 18.539,
  "BaseResolution": 116,
  "BodyPartExamined": "HEAD",
  "ConsistencyInfo": "N4_VD13D_LATEST_20130810",
  "ConversionSoftware": "dcm2niix",
  "ConversionSoftwareVersion": "v1.0.20190410  (JP2:OpenJPEG) (JP-LS:CharLS) GCC5.5.0",
  "DerivedVendorReportedEchoSpacing": 0.000930006,
  "DeviceSerialNumber": "66014",
  "DwellTime": 3e-06,
  "EchoTime": 0.03,
  "EchoTrainLength": 50,
  "EffectiveEchoSpacing": 0.000465003,
  "FlipAngle": 81,
  "ImageComments": "Unaliased_MB3_PE4",
  "ImageOrientationPatientDICOM": [0.999839, -0.0177603, -0.00244991, 0.0174522, 0.995437, -0.0938104],
  "ImageType": [
    "ORIGINAL",
    "PRIMARY",
    "M",
    "MB",
    "ND",
    "MOSAIC"
],
  "ImagingFrequency": 123.261,
  "InPlanePhaseEncodingDirectionDICOM": "COL",
  "InstitutionAddress": "Yiheyuan_Road_5_Beijing_Haidian_CN_100871",
  "InstitutionName": "Peking_Univeristy",
  "InstitutionalDepartmentName": "Department",
  "MRAcquisitionType": "2D",
  "MagneticFieldStrength": 3,
  "Manufacturer": "Siemens",
  "ManufacturersModelName": "Prisma",
  "Modality": "MR",
  "MultibandAccelerationFactor": 3,
  "ParallelReductionFactorInPlane": 2,
  "PartialFourier": 0.875,
  "PatientPosition": "HFS",
  "PercentPhaseFOV": 100,
  "PhaseEncodingDirection": "j-",
  "PhaseEncodingSteps": 101,
  "PhaseResolution": 1,
  "PixelBandwidth": 1435,
  "ProcedureStepDescription": "Research_Projects_64CH",
  "ProtocolName": "mbep2d_bold_MB3_learn4",
  "PulseSequenceDetails": "%CustomerSeq%_cmrr_mbep2d_bold",
  "ReceiveCoilActiveElements": "HC1-6",
  "ReceiveCoilName": "HeadNeck_64",
  "ReconMatrixPE": 116,
  "RefLinesPE": 44,
  "RepetitionTime": 2,
  "SAR": 0.0545361,
  "ScanOptions": "PFP_FS",
  "ScanningSequence": "EP",
  "SequenceName": "epfid2d1_116",
  "SequenceVariant": "SK_SS",
  "SeriesDescription": "mbep2d_bold_MB3_learn4",
  "SeriesNumber": 9,
  "ShimSetting": [-3462, -2118, -1942, 368, 26, -138, 64, 27],
  "SliceThickness": 1.9,
  "SliceTiming": [0, 0.9075, 1.815, 0.7425, 1.65, 0.5775, 1.485, 0.4125, 1.32, 0.2475, 1.155, 0.0825, 0.99, 1.8975, 0.825, 1.7325, 0.66, 1.5675, 0.495, 1.4025, 0.33, 1.2375, 0.165, 1.0725, 0, 0.9075, 1.815, 0.7425, 1.65, 0.5775, 1.485, 0.4125, 1.32, 0.2475, 1.155, 0.0825, 0.99, 1.8975, 0.825, 1.7325, 0.66, 1.5675, 0.495, 1.4025, 0.33, 1.2375, 0.165, 1.0725, 0, 0.9075, 1.815, 0.7425, 1.65, 0.5775, 1.485, 0.4125, 1.32, 0.2475, 1.155, 0.0825, 0.99, 1.8975, 0.825, 1.7325, 0.66, 1.5675, 0.495, 1.4025, 0.33, 1.2375, 0.165, 1.0725],
  "SoftwareVersions": "syngo_MR_D13D",
  "SpacingBetweenSlices": 1.9,
  "StationName": "AWP66014",
  "TaskName": "updating",
  "TotalReadoutTime": 0.0534753,
  "TxRefAmp": 217.28,
  "WipMemBlock": "8f5d4c2d-9089-4def-be71-d18e3c54294c||Sequence: vd13d/master r/0735857; Nov 19 2014 09:21:40 by eja",
  "dcmmeta_affine": [
    [-1.8962469100952148, 0.033099059015512466, -0.007799172308295965, 107.44214630126953],
    [0.03368331119418144, 1.8878979682922363, -0.1781298816204071, -97.27434539794922],
    [-0.004646374378353357, 0.1779162734746933, 1.891615390777588, -76.77132415771484],
    [0.0, 0.0, 0.0, 1.0]
],
  "dcmmeta_reorient_transform": [
    [0.0, -1.0, 0.0, 115.0],
    [1.0, 0.0, 0.0, 0.0],
    [0.0, 0.0, 1.0, 0.0],
    [0.0, 0.0, 0.0, 1.0]
],
  "dcmmeta_shape": [116, 116, 72, 218],
  "dcmmeta_slice_dim": 2,
  "dcmmeta_version": 0.6,
  "global": {
    "const": {
      "AcquisitionMatrix": [116, 0, 0, 116],
      "AngioFlag": "N",
      "BitsAllocated": 16,
      "BitsStored": 16,
      "BodyPartExamined": "HEAD",
      "Columns": 1044,
      "EchoNumbers": 1,
      "EchoTime": 30.0,
      "EchoTrainLength": 50,
      "FlipAngle": 81.0,
      "HighBit": 15,
      "ImageOrientationPatient": [0.9998392721051, -0.0177602903999, -0.0024499063793, 0.01745223040933, 0.99543710425114, -0.0938103999237],
      "ImagePositionPatient": [-1006.4650592533, -980.18951848324, 28.398113907932],
      "ImageType": [
        "ORIGINAL",
        "PRIMARY",
        "M",
        "MB",
        "ND",
        "MOSAIC"
],
      "ImagedNucleus": "1H",
      "ImagingFrequency": 123.26058,
      "InPlanePhaseEncodingDirection": "COL",
      "LargestImagePixelValue": 65535,
      "MRAcquisitionType": "2D",
      "MagneticFieldStrength": 3.0,
      "Manufacturer": "SIEMENS",
      "ManufacturerModelName": "Prisma",
      "Modality": "MR",
      "NumberOfAverages": 1.0,
      "NumberOfPhaseEncodingSteps": 101,
      "PercentPhaseFieldOfView": 100.0,
      "PercentSampling": 100.0,
      "PerformedProcedureStepStartTime": "142503.536000",
      "PhotometricInterpretation": "MONOCHROME2",
      "PixelBandwidth": 1435.0,
      "PixelRepresentation": 0,
      "PixelSpacing": [1.8965517282486, 1.8965517282486],
      "ProtocolName": "mbep2d_bold_MB3_learn4",
      "RepetitionTime": 2000.0,
      "Rows": 1044,
      "SAR": 0.05453609639506,
      "SamplesPerPixel": 1,
      "ScanOptions": [
        "PFP",
        "FS"
],
      "ScanningSequence": "EP",
      "SequenceName": "epfid2d1_116",
      "SequenceVariant": [
        "SK",
        "SS"
],
      "SeriesDescription": "mbep2d_bold_MB3_learn4",
      "SeriesNumber": 9,
      "SeriesTime": "150829.206000",
      "SliceLocation": -67.753852869719,
      "SliceThickness": 1.8999999761581,
      "SmallestImagePixelValue": 0,
      "SoftwareVersions": "syngo MR D13D",
      "SpacingBetweenSlices": 1.8999999980217,
      "SpecificCharacterSet": "ISO_IR 100",
      "StudyID": "1",
      "StudyTime": "142503.466000",
      "TimeOfLastCalibration": ["123723.000000", "123723.000000"],
      "TransmitCoilName": "Body",
      "VariableFlipAngleFlag": "N",
      "WindowCenterWidthExplanation": "Algo1",
      "dBdt": 0.0},
    "slices": {}
  },
  "time": {
    "samples": {
      "AcquisitionNumber": [1, 2, 3, 4, 5, 6, 7, 8, 9, 10, 11, 12, 13, 14, 15, 16, 17, 18, 19, 20, 21, 22, 23, 24, 25, 26, 27, 28, 29, 30, 31, 32, 33, 34, 35, 36, 37, 38, 39, 40, 41, 42, 43, 44, 45, 46, 47, 48, 49, 50, 51, 52, 53, 54, 55, 56, 57, 58, 59, 60, 61, 62, 63, 64, 65, 66, 67, 68, 69, 70, 71, 72, 73, 74, 75, 76, 77, 78, 79, 80, 81, 82, 83, 84, 85, 86, 87, 88, 89, 90, 91, 92, 93, 94, 95, 96, 97, 98, 99, 100, 101, 102, 103, 104, 105, 106, 107, 108, 109, 110, 111, 112, 113, 114, 115, 116, 117, 118, 119, 120, 121, 122, 123, 124, 125, 126, 127, 128, 129, 130, 131, 132, 133, 134, 135, 136, 137, 138, 139, 140, 141, 142, 143, 144, 145, 146, 147, 148, 149, 150, 151, 152, 153, 154, 155, 156, 157, 158, 159, 160, 161, 162, 163, 164, 165, 166, 167, 168, 169, 170, 171, 172, 173, 174, 175, 176, 177, 178, 179, 180, 181, 182, 183, 184, 185, 186, 187, 188, 189, 190, 191, 192, 193, 194, 195, 196, 197, 198, 199, 200, 201, 202, 203, 204, 205, 206, 207, 208, 209, 210, 211, 212, 213, 214, 215, 216, 217, 218],
      "AcquisitionTime": ["150816.922500", "150818.922500", "150820.922500", "150822.922500", "150824.922500", "150826.922500", "150828.922500", "150830.922500", "150832.922500", "150834.922500", "150836.922500", "150838.922500", "150840.922500", "150842.922500", "150844.922500", "150846.922500", "150848.922500", "150850.922500", "150852.922500", "150854.922500", "150856.922500", "150858.922500", "150900.922500", "150902.922500", "150904.922500", "150906.922500", "150908.922500", "150910.922500", "150912.922500", "150914.922500", "150916.922500", "150918.922500", "150920.922500", "150922.922500", "150924.922500", "150926.922500", "150928.922500", "150930.922500", "150932.922500", "150934.922500", "150936.922500", "150938.922500", "150940.922500", "150942.922500", "150944.922500", "150946.922500", "150948.922500", "150950.922500", "150952.922500", "150954.922500", "150956.922500", "150958.922500", "151000.922500", "151002.922500", "151004.922500", "151006.922500", "151008.922500", "151010.922500", "151012.922500", "151014.922500", "151016.922500", "151018.922500", "151020.922500", "151022.922500", "151024.922500", "151026.922500", "151028.922500", "151030.922500", "151032.922500", "151034.922500", "151036.922500", "151038.922500", "151040.922500", "151042.922500", "151044.922500", "151046.922500", "151048.922500", "151050.922500", "151052.922500", "151054.922500", "151056.922500", "151058.922500", "151100.922500", "151102.922500", "151104.922500", "151106.922500", "151108.922500", "151110.922500", "151112.922500", "151114.922500", "151116.922500", "151118.922500", "151120.922500", "151122.922500", "151124.922500", "151126.922500", "151128.922500", "151130.922500", "151132.922500", "151134.922500", "151136.922500", "151138.922500", "151140.922500", "151142.922500", "151144.922500", "151146.922500", "151148.922500", "151150.922500", "151152.922500", "151154.922500", "151156.922500", "151158.922500", "151200.922500", "151202.922500", "151204.922500", "151206.922500", "151208.922500", "151210.922500", "151212.922500", "151214.922500", "151216.922500", "151218.922500", "151220.922500", "151222.922500", "151224.922500", "151226.922500", "151228.922500", "151230.922500", "151232.922500", "151234.922500", "151236.922500", "151238.922500", "151240.922500", "151242.922500", "151244.922500", "151246.922500", "151248.922500", "151250.922500", "151252.922500", "151254.922500", "151256.922500", "151258.925000", "151300.925000", "151302.925000", "151304.925000", "151306.925000", "151308.925000", "151310.925000", "151312.925000", "151314.925000", "151316.925000", "151318.925000", "151320.925000", "151322.925000", "151324.925000", "151326.925000", "151328.925000", "151330.925000", "151332.925000", "151334.925000", "151336.925000", "151338.925000", "151340.925000", "151342.925000", "151344.925000", "151346.925000", "151348.925000", "151350.925000", "151352.925000", "151354.925000", "151356.925000", "151358.925000", "151400.925000", "151402.925000", "151404.925000", "151406.925000", "151408.925000", "151410.925000", "151412.925000", "151414.925000", "151416.925000", "151418.925000", "151420.925000", "151422.925000", "151424.925000", "151426.925000", "151428.925000", "151430.925000", "151432.925000", "151434.925000", "151436.925000", "151438.925000", "151440.925000", "151442.925000", "151444.925000", "151446.925000", "151448.925000", "151450.925000", "151452.925000", "151454.925000", "151456.925000", "151458.925000", "151500.925000", "151502.925000", "151504.925000", "151506.925000", "151508.925000", "151510.925000", "151512.925000", "151514.925000", "151516.925000", "151518.925000", "151520.925000", "151522.925000", "151524.925000", "151526.925000", "151528.925000", "151530.925000"],
      "ContentTime": ["150829.211000", "150830.203000", "150830.207000", "150831.205000", "150832.204000", "150832.208000", "150833.203000", "150834.203000", "150836.205000", "150838.205000", "150840.205000", "150842.205000", "150844.205000", "150846.205000", "150848.205000", "150850.205000", "150852.204000", "150854.205000", "150856.205000", "150858.205000", "150900.205000", "150902.205000", "150904.205000", "150906.205000", "150908.204000", "150910.204000", "150912.204000", "150914.205000", "150916.205000", "150918.205000", "150920.205000", "150922.205000", "150924.205000", "150926.204000", "150928.205000", "150930.205000", "150932.205000", "150934.205000", "150936.205000", "150938.205000", "150940.205000", "150942.205000", "150944.204000", "150946.205000", "150948.205000", "150950.205000", "150952.205000", "150954.205000", "150956.205000", "150958.206000", "151000.205000", "151002.204000", "151004.205000", "151006.203000", "151008.204000", "151010.205000", "151012.205000", "151014.205000", "151016.205000", "151018.205000", "151020.204000", "151022.205000", "151024.205000", "151026.205000", "151028.205000", "151030.205000", "151032.218000", "151034.205000", "151036.204000", "151038.205000", "151040.205000", "151042.204000", "151044.205000", "151046.205000", "151048.205000", "151050.205000", "151052.205000", "151054.204000", "151056.206000", "151058.204000", "151100.205000", "151102.205000", "151104.205000", "151106.205000", "151108.205000", "151110.205000", "151112.204000", "151114.204000", "151116.205000", "151118.205000", "151120.205000", "151122.205000", "151124.205000", "151126.205000", "151128.205000", "151130.204000", "151132.205000", "151134.204000", "151136.205000", "151138.205000", "151140.205000", "151142.204000", "151144.205000", "151146.204000", "151148.204000", "151150.205000", "151152.205000", "151154.205000", "151156.205000", "151158.206000", "151200.205000", "151202.205000", "151204.204000", "151206.205000", "151208.205000", "151210.205000", "151212.205000", "151214.205000", "151216.205000", "151218.206000", "151220.205000", "151222.204000", "151224.205000", "151226.205000", "151228.206000", "151230.205000", "151232.205000", "151234.205000", "151236.205000", "151238.205000", "151240.204000", "151242.205000", "151244.205000", "151246.205000", "151248.205000", "151250.206000", "151252.205000", "151254.205000", "151256.204000", "151258.205000", "151300.205000", "151302.206000", "151304.204000", "151306.205000", "151308.205000", "151310.205000", "151312.205000", "151314.204000", "151316.205000", "151318.205000", "151320.205000", "151322.205000", "151324.205000", "151326.205000", "151328.205000", "151330.205000", "151332.204000", "151334.205000", "151336.205000", "151338.205000", "151340.205000", "151342.205000", "151344.206000", "151346.205000", "151348.205000", "151350.205000", "151352.205000", "151354.205000", "151356.205000", "151358.205000", "151400.205000", "151402.205000", "151404.205000", "151406.204000", "151408.205000", "151410.204000", "151412.205000", "151414.205000", "151416.205000", "151418.205000", "151420.205000", "151422.205000", "151424.204000", "151426.205000", "151428.205000", "151430.205000", "151432.205000", "151434.205000", "151436.205000", "151438.205000", "151440.205000", "151442.204000", "151444.205000", "151446.205000", "151448.205000", "151450.205000", "151452.205000", "151454.205000", "151456.205000", "151458.205000", "151500.205000", "151502.205000", "151504.205000", "151506.205000", "151508.205000", "151510.205000", "151512.204000", "151514.205000", "151516.204000", "151518.206000", "151520.205000", "151522.205000", "151524.205000", "151526.205000", "151528.205000", "151530.205000", "151532.205000", "151533.979000"],
      "InstanceCreationTime": ["150829.211000", "150830.203000", "150830.207000", "150831.205000", "150832.204000", "150832.208000", "150833.203000", "150834.203000", "150836.205000", "150838.205000", "150840.205000", "150842.205000", "150844.205000", "150846.205000", "150848.205000", "150850.205000", "150852.204000", "150854.205000", "150856.205000", "150858.205000", "150900.205000", "150902.205000", "150904.205000", "150906.205000", "150908.204000", "150910.204000", "150912.204000", "150914.205000", "150916.205000", "150918.205000", "150920.205000", "150922.205000", "150924.205000", "150926.204000", "150928.205000", "150930.205000", "150932.205000", "150934.205000", "150936.205000", "150938.205000", "150940.205000", "150942.205000", "150944.204000", "150946.205000", "150948.205000", "150950.205000", "150952.205000", "150954.205000", "150956.205000", "150958.206000", "151000.205000", "151002.204000", "151004.205000", "151006.203000", "151008.204000", "151010.205000", "151012.205000", "151014.205000", "151016.205000", "151018.205000", "151020.204000", "151022.205000", "151024.205000", "151026.205000", "151028.205000", "151030.205000", "151032.218000", "151034.205000", "151036.204000", "151038.205000", "151040.205000", "151042.204000", "151044.205000", "151046.205000", "151048.205000", "151050.205000", "151052.205000", "151054.204000", "151056.206000", "151058.204000", "151100.205000", "151102.205000", "151104.205000", "151106.205000", "151108.205000", "151110.205000", "151112.204000", "151114.204000", "151116.205000", "151118.205000", "151120.205000", "151122.205000", "151124.205000", "151126.205000", "151128.205000", "151130.204000", "151132.205000", "151134.204000", "151136.205000", "151138.205000", "151140.205000", "151142.204000", "151144.205000", "151146.204000", "151148.204000", "151150.205000", "151152.205000", "151154.205000", "151156.205000", "151158.206000", "151200.205000", "151202.205000", "151204.204000", "151206.205000", "151208.205000", "151210.205000", "151212.205000", "151214.205000", "151216.205000", "151218.206000", "151220.205000", "151222.204000", "151224.205000", "151226.205000", "151228.206000", "151230.205000", "151232.205000", "151234.205000", "151236.205000", "151238.205000", "151240.204000", "151242.205000", "151244.205000", "151246.205000", "151248.205000", "151250.206000", "151252.205000", "151254.205000", "151256.204000", "151258.205000", "151300.205000", "151302.206000", "151304.204000", "151306.205000", "151308.205000", "151310.205000", "151312.205000", "151314.204000", "151316.205000", "151318.205000", "151320.205000", "151322.205000", "151324.205000", "151326.205000", "151328.205000", "151330.205000", "151332.204000", "151334.205000", "151336.205000", "151338.205000", "151340.205000", "151342.205000", "151344.206000", "151346.205000", "151348.205000", "151350.205000", "151352.205000", "151354.205000", "151356.205000", "151358.205000", "151400.205000", "151402.205000", "151404.205000", "151406.204000", "151408.205000", "151410.204000", "151412.205000", "151414.205000", "151416.205000", "151418.205000", "151420.205000", "151422.205000", "151424.204000", "151426.205000", "151428.205000", "151430.205000", "151432.205000", "151434.205000", "151436.205000", "151438.205000", "151440.205000", "151442.204000", "151444.205000", "151446.205000", "151448.205000", "151450.205000", "151452.205000", "151454.205000", "151456.205000", "151458.205000", "151500.205000", "151502.205000", "151504.205000", "151506.205000", "151508.205000", "151510.205000", "151512.204000", "151514.205000", "151516.204000", "151518.206000", "151520.205000", "151522.205000", "151524.205000", "151526.205000", "151528.205000", "151530.205000", "151532.205000", "151533.979000"],
      "InstanceNumber": [1, 2, 3, 4, 5, 6, 7, 8, 9, 10, 11, 12, 13, 14, 15, 16, 17, 18, 19, 20, 21, 22, 23, 24, 25, 26, 27, 28, 29, 30, 31, 32, 33, 34, 35, 36, 37, 38, 39, 40, 41, 42, 43, 44, 45, 46, 47, 48, 49, 50, 51, 52, 53, 54, 55, 56, 57, 58, 59, 60, 61, 62, 63, 64, 65, 66, 67, 68, 69, 70, 71, 72, 73, 74, 75, 76, 77, 78, 79, 80, 81, 82, 83, 84, 85, 86, 87, 88, 89, 90, 91, 92, 93, 94, 95, 96, 97, 98, 99, 100, 101, 102, 103, 104, 105, 106, 107, 108, 109, 110, 111, 112, 113, 114, 115, 116, 117, 118, 119, 120, 121, 122, 123, 124, 125, 126, 127, 128, 129, 130, 131, 132, 133, 134, 135, 136, 137, 138, 139, 140, 141, 142, 143, 144, 145, 146, 147, 148, 149, 150, 151, 152, 153, 154, 155, 156, 157, 158, 159, 160, 161, 162, 163, 164, 165, 166, 167, 168, 169, 170, 171, 172, 173, 174, 175, 176, 177, 178, 179, 180, 181, 182, 183, 184, 185, 186, 187, 188, 189, 190, 191, 192, 193, 194, 195, 196, 197, 198, 199, 200, 201, 202, 203, 204, 205, 206, 207, 208, 209, 210, 211, 212, 213, 214, 215, 216, 217, 218],
      "WindowCenter": [16688.0, 16662.0, 16620.0, 16625.0, 16608.0, 16622.0, 16600.0, 16607.0, 16591.0, 16587.0, 16603.0, 16617.0, 16600.0, 16590.0, 16594.0, 16591.0, 16581.0, 16599.0, 16595.0, 16598.0, 16603.0, 16593.0, 16598.0, 16584.0, 16589.0, 16593.0, 16588.0, 16580.0, 16595.0, 16588.0, 16583.0, 16589.0, 16577.0, 16578.0, 16588.0, 16587.0, 16603.0, 16595.0, 16595.0, 16599.0, 16601.0, 16604.0, 16606.0, 16618.0, 16577.0, 16599.0, 16596.0, 16588.0, 16596.0, 16587.0, 16585.0, 16594.0, 16591.0, 16596.0, 16595.0, 16571.0, 16579.0, 16584.0, 16570.0, 16578.0, 16563.0, 16589.0, 16595.0, 16602.0, 16614.0, 16598.0, 16588.0, 16607.0, 16598.0, 16596.0, 16590.0, 16612.0, 16587.0, 16592.0, 16581.0, 16597.0, 16616.0, 16595.0, 16578.0, 16602.0, 16590.0, 16591.0, 16599.0, 16581.0, 16592.0, 16604.0, 16618.0, 16609.0, 16607.0, 16613.0, 16593.0, 16593.0, 16609.0, 16603.0, 16613.0, 16604.0, 16598.0, 16604.0, 16609.0, 16600.0, 16588.0, 16601.0, 16603.0, 16600.0, 16610.0, 16608.0, 16603.0, 16596.0, 16609.0, 16608.0, 16614.0, 16594.0, 16596.0, 16598.0, 16590.0, 16580.0, 16581.0, 16580.0, 16595.0, 16606.0, 16618.0, 16607.0, 16623.0, 16636.0, 16642.0, 16613.0, 16612.0, 16637.0, 16627.0, 16625.0, 16636.0, 16615.0, 16632.0, 16633.0, 16616.0, 16635.0, 16632.0, 16617.0, 16631.0, 16618.0, 16614.0, 16629.0, 16622.0, 16637.0, 16637.0, 16622.0, 16628.0, 16634.0, 16631.0, 16616.0, 16624.0, 16639.0, 16627.0, 16639.0, 16619.0, 16617.0, 16633.0, 16621.0, 16620.0, 16610.0, 16612.0, 16611.0, 16625.0, 16624.0, 16620.0, 16623.0, 16600.0, 16610.0, 16613.0, 16627.0, 16634.0, 16632.0, 16629.0, 16633.0, 16609.0, 16615.0, 16632.0, 16628.0, 16622.0, 16624.0, 16625.0, 16618.0, 16606.0, 16651.0, 16633.0, 16625.0, 16624.0, 16612.0, 16621.0, 16627.0, 16622.0, 16640.0, 16632.0, 16656.0, 16629.0, 16635.0, 16629.0, 16625.0, 16633.0, 16639.0, 16642.0, 16618.0, 16633.0, 16643.0, 16638.0, 16655.0, 16637.0, 16644.0, 16635.0, 16634.0, 16629.0, 16642.0, 16626.0, 16631.0, 16642.0, 16632.0, 16616.0, 16627.0],
      "WindowWidth": [47451.0, 47311.0, 47344.0, 47373.0, 47320.0, 47239.0, 47185.0, 47137.0, 47177.0, 47227.0, 47239.0, 47224.0, 47132.0, 47111.0, 47179.0, 47150.0, 47104.0, 47131.0, 47182.0, 47185.0, 47136.0, 47168.0, 47210.0, 47200.0, 47190.0, 47167.0, 47124.0, 47170.0, 47196.0, 47177.0, 47189.0, 47180.0, 47196.0, 47221.0, 47204.0, 47216.0, 47215.0, 47235.0, 47210.0, 47135.0, 47214.0, 47254.0, 47191.0, 47134.0, 47079.0, 47159.0, 47223.0, 47216.0, 47209.0, 47243.0, 47227.0, 47249.0, 47259.0, 47211.0, 47117.0, 47085.0, 47081.0, 47096.0, 47112.0, 47107.0, 47147.0, 47179.0, 47198.0, 47217.0, 47211.0, 47173.0, 47164.0, 47140.0, 47147.0, 47185.0, 47196.0, 47170.0, 47165.0, 47155.0, 47186.0, 47224.0, 47175.0, 47172.0, 47159.0, 47162.0, 47154.0, 47116.0, 47147.0, 47187.0, 47234.0, 47255.0, 47254.0, 47247.0, 47207.0, 47172.0, 47156.0, 47144.0, 47143.0, 47215.0, 47223.0, 47177.0, 47173.0, 47217.0, 47286.0, 47253.0, 47218.0, 47214.0, 47229.0, 47241.0, 47182.0, 47143.0, 47138.0, 47198.0, 47258.0, 47272.0, 47223.0, 47146.0, 47053.0, 47028.0, 46997.0, 46990.0, 47018.0, 47082.0, 47067.0, 47100.0, 47138.0, 47209.0, 47258.0, 47229.0, 47180.0, 47134.0, 47212.0, 47296.0, 47314.0, 47261.0, 47255.0, 47292.0, 47280.0, 47266.0, 47267.0, 47243.0, 47224.0, 47175.0, 47135.0, 47176.0, 47238.0, 47264.0, 47273.0, 47205.0, 47177.0, 47192.0, 47223.0, 47293.0, 47278.0, 47306.0, 47351.0, 47297.0, 47260.0, 47245.0, 47203.0, 47240.0, 47239.0, 47228.0, 47190.0, 47196.0, 47263.0, 47288.0, 47245.0, 47232.0, 47203.0, 47128.0, 47149.0, 47209.0, 47290.0, 47287.0, 47266.0, 47239.0, 47223.0, 47188.0, 47197.0, 47226.0, 47215.0, 47184.0, 47165.0, 47192.0, 47209.0, 47230.0, 47273.0, 47266.0, 47226.0, 47195.0, 47221.0, 47278.0, 47284.0, 47260.0, 47271.0, 47285.0, 47344.0, 47284.0, 47212.0, 47175.0, 47224.0, 47260.0, 47255.0, 47205.0, 47182.0, 47231.0, 47293.0, 47314.0, 47270.0, 47258.0, 47283.0, 47249.0, 47240.0, 47215.0, 47211.0, 47193.0, 47194.0, 47146.0, 47116.0, 47096.0, 47173.0, 47283.0]
    },
    "slices": {}
  }
}