{
  "AcquisitionMatrixPE": 116,
  "AcquisitionNumber": 1,
  "AcquisitionTime": "14:43:43.197500",
  "BandwidthPerPixelPhaseEncode": 18.539,
  "BaseResolution": 116,
  "BodyPartExamined": "HEAD",
  "ConsistencyInfo": "N4_VD13D_LATEST_20130810",
  "ConversionSoftware": "dcm2niix",
  "ConversionSoftwareVersion": "v1.0.20190410  (JP2:OpenJPEG) (JP-LS:CharLS) GCC5.5.0",
  "DerivedVendorReportedEchoSpacing": 0.000930006,
  "DeviceSerialNumber": "66014",
  "DwellTime": 3e-06,
  "EchoTime": 0.03,
  "EchoTrainLength": 50,
  "EffectiveEchoSpacing": 0.000465003,
  "FlipAngle": 81,
  "ImageComments": "Unaliased_MB3_PE4",
  "ImageOrientationPatientDICOM": [0.999839, -0.0177603, -0.00244991, 0.0174522, 0.995437, -0.0938104],
  "ImageType": [
    "ORIGINAL",
    "PRIMARY",
    "M",
    "MB",
    "ND",
    "MOSAIC"
],
  "ImagingFrequency": 123.261,
  "InPlanePhaseEncodingDirectionDICOM": "COL",
  "InstitutionAddress": "Yiheyuan_Road_5_Beijing_Haidian_CN_100871",
  "InstitutionName": "Peking_Univeristy",
  "InstitutionalDepartmentName": "Department",
  "MRAcquisitionType": "2D",
  "MagneticFieldStrength": 3,
  "Manufacturer": "Siemens",
  "ManufacturersModelName": "Prisma",
  "Modality": "MR",
  "MultibandAccelerationFactor": 3,
  "ParallelReductionFactorInPlane": 2,
  "PartialFourier": 0.875,
  "PatientPosition": "HFS",
  "PercentPhaseFOV": 100,
  "PhaseEncodingDirection": "j-",
  "PhaseEncodingSteps": 101,
  "PhaseResolution": 1,
  "PixelBandwidth": 1435,
  "ProcedureStepDescription": "Research_Projects_64CH",
  "ProtocolName": "mbep2d_bold_MB3_learn1",
  "PulseSequenceDetails": "%CustomerSeq%_cmrr_mbep2d_bold",
  "ReceiveCoilActiveElements": "HC1-6",
  "ReceiveCoilName": "HeadNeck_64",
  "ReconMatrixPE": 116,
  "RefLinesPE": 44,
  "RepetitionTime": 2,
  "SAR": 0.0545361,
  "ScanOptions": "PFP_FS",
  "ScanningSequence": "EP",
  "SequenceName": "epfid2d1_116",
  "SequenceVariant": "SK_SS",
  "SeriesDescription": "mbep2d_bold_MB3_learn1",
  "SeriesNumber": 6,
  "ShimSetting": [-3462, -2118, -1942, 368, 26, -138, 64, 27],
  "SliceThickness": 1.9,
  "SliceTiming": [0, 0.9075, 1.815, 0.7425, 1.65, 0.5775, 1.485, 0.4125, 1.32, 0.2475, 1.155, 0.0825, 0.99, 1.8975, 0.825, 1.7325, 0.66, 1.5675, 0.495, 1.4025, 0.33, 1.2375, 0.165, 1.0725, 0, 0.9075, 1.815, 0.7425, 1.65, 0.5775, 1.485, 0.4125, 1.32, 0.2475, 1.155, 0.0825, 0.99, 1.8975, 0.825, 1.7325, 0.66, 1.5675, 0.495, 1.4025, 0.33, 1.2375, 0.165, 1.0725, 0, 0.9075, 1.815, 0.7425, 1.65, 0.5775, 1.485, 0.4125, 1.32, 0.2475, 1.155, 0.0825, 0.99, 1.8975, 0.825, 1.7325, 0.66, 1.5675, 0.495, 1.4025, 0.33, 1.2375, 0.165, 1.0725],
  "SoftwareVersions": "syngo_MR_D13D",
  "SpacingBetweenSlices": 1.9,
  "StationName": "AWP66014",
  "TaskName": "updating",
  "TotalReadoutTime": 0.0534753,
  "TxRefAmp": 217.28,
  "WipMemBlock": "dc23835a-71fb-4389-8abc-449db464fbb1||Sequence: vd13d/master r/0735857; Nov 19 2014 09:21:40 by eja",
  "dcmmeta_affine": [
    [-1.8962469100952148, 0.033099059015512466, -0.007799172308295965, 107.44214630126953],
    [0.03368331119418144, 1.8878979682922363, -0.1781298816204071, -97.27434539794922],
    [-0.004646374378353357, 0.1779162734746933, 1.891615390777588, -76.77132415771484],
    [0.0, 0.0, 0.0, 1.0]
],
  "dcmmeta_reorient_transform": [
    [0.0, -1.0, 0.0, 115.0],
    [1.0, 0.0, 0.0, 0.0],
    [0.0, 0.0, 1.0, 0.0],
    [0.0, 0.0, 0.0, 1.0]
],
  "dcmmeta_shape": [116, 116, 72, 218],
  "dcmmeta_slice_dim": 2,
  "dcmmeta_version": 0.6,
  "global": {
    "const": {
      "AcquisitionMatrix": [116, 0, 0, 116],
      "AngioFlag": "N",
      "BitsAllocated": 16,
      "BitsStored": 16,
      "BodyPartExamined": "HEAD",
      "Columns": 1044,
      "EchoNumbers": 1,
      "EchoTime": 30.0,
      "EchoTrainLength": 50,
      "FlipAngle": 81.0,
      "HighBit": 15,
      "ImageOrientationPatient": [0.9998392721051, -0.0177602903999, -0.0024499063793, 0.01745223040933, 0.99543710425114, -0.0938103999237],
      "ImagePositionPatient": [-1006.4650592533, -980.18951848324, 28.398113907932],
      "ImageType": [
        "ORIGINAL",
        "PRIMARY",
        "M",
        "MB",
        "ND",
        "MOSAIC"
],
      "ImagedNucleus": "1H",
      "ImagingFrequency": 123.260577,
      "InPlanePhaseEncodingDirection": "COL",
      "LargestImagePixelValue": 65535,
      "MRAcquisitionType": "2D",
      "MagneticFieldStrength": 3.0,
      "Manufacturer": "SIEMENS",
      "ManufacturerModelName": "Prisma",
      "Modality": "MR",
      "NumberOfAverages": 1.0,
      "NumberOfPhaseEncodingSteps": 101,
      "PercentPhaseFieldOfView": 100.0,
      "PercentSampling": 100.0,
      "PerformedProcedureStepStartTime": "142503.536000",
      "PhotometricInterpretation": "MONOCHROME2",
      "PixelBandwidth": 1435.0,
      "PixelRepresentation": 0,
      "PixelSpacing": [1.8965517282486, 1.8965517282486],
      "ProtocolName": "mbep2d_bold_MB3_learn1",
      "RepetitionTime": 2000.0,
      "Rows": 1044,
      "SAR": 0.0545360964136,
      "SamplesPerPixel": 1,
      "ScanOptions": [
        "PFP",
        "FS"
],
      "ScanningSequence": "EP",
      "SequenceName": "epfid2d1_116",
      "SequenceVariant": [
        "SK",
        "SS"
],
      "SeriesDescription": "mbep2d_bold_MB3_learn1",
      "SeriesNumber": 6,
      "SeriesTime": "144355.955000",
      "SliceLocation": -67.753852869719,
      "SliceThickness": 1.8999999761581,
      "SmallestImagePixelValue": 0,
      "SoftwareVersions": "syngo MR D13D",
      "SpacingBetweenSlices": 1.8999999980217,
      "SpecificCharacterSet": "ISO_IR 100",
      "StudyID": "1",
      "StudyTime": "142503.466000",
      "TimeOfLastCalibration": ["123723.000000", "123723.000000"],
      "TransmitCoilName": "Body",
      "VariableFlipAngleFlag": "N",
      "WindowCenterWidthExplanation": "Algo1",
      "dBdt": 0.0},
    "slices": {}
  },
  "time": {
    "samples": {
      "AcquisitionNumber": [1, 2, 3, 4, 5, 6, 7, 8, 9, 10, 11, 12, 13, 14, 15, 16, 17, 18, 19, 20, 21, 22, 23, 24, 25, 26, 27, 28, 29, 30, 31, 32, 33, 34, 35, 36, 37, 38, 39, 40, 41, 42, 43, 44, 45, 46, 47, 48, 49, 50, 51, 52, 53, 54, 55, 56, 57, 58, 59, 60, 61, 62, 63, 64, 65, 66, 67, 68, 69, 70, 71, 72, 73, 74, 75, 76, 77, 78, 79, 80, 81, 82, 83, 84, 85, 86, 87, 88, 89, 90, 91, 92, 93, 94, 95, 96, 97, 98, 99, 100, 101, 102, 103, 104, 105, 106, 107, 108, 109, 110, 111, 112, 113, 114, 115, 116, 117, 118, 119, 120, 121, 122, 123, 124, 125, 126, 127, 128, 129, 130, 131, 132, 133, 134, 135, 136, 137, 138, 139, 140, 141, 142, 143, 144, 145, 146, 147, 148, 149, 150, 151, 152, 153, 154, 155, 156, 157, 158, 159, 160, 161, 162, 163, 164, 165, 166, 167, 168, 169, 170, 171, 172, 173, 174, 175, 176, 177, 178, 179, 180, 181, 182, 183, 184, 185, 186, 187, 188, 189, 190, 191, 192, 193, 194, 195, 196, 197, 198, 199, 200, 201, 202, 203, 204, 205, 206, 207, 208, 209, 210, 211, 212, 213, 214, 215, 216, 217, 218],
      "AcquisitionTime": ["144343.197500", "144345.197500", "144347.197500", "144349.197500", "144351.197500", "144353.197500", "144355.197500", "144357.197500", "144359.197500", "144401.197500", "144403.197500", "144405.197500", "144407.197500", "144409.197500", "144411.197500", "144413.197500", "144415.197500", "144417.197500", "144419.197500", "144421.197500", "144423.197500", "144425.197500", "144427.197500", "144429.197500", "144431.197500", "144433.197500", "144435.197500", "144437.197500", "144439.197500", "144441.197500", "144443.197500", "144445.197500", "144447.197500", "144449.197500", "144451.197500", "144453.197500", "144455.197500", "144457.197500", "144459.197500", "144501.197500", "144503.197500", "144505.197500", "144507.197500", "144509.197500", "144511.197500", "144513.197500", "144515.197500", "144517.197500", "144519.197500", "144521.197500", "144523.197500", "144525.197500", "144527.197500", "144529.197500", "144531.197500", "144533.197500", "144535.197500", "144537.197500", "144539.197500", "144541.197500", "144543.197500", "144545.197500", "144547.197500", "144549.197500", "144551.197500", "144553.197500", "144555.197500", "144557.197500", "144559.197500", "144601.197500", "144603.197500", "144605.197500", "144607.197500", "144609.197500", "144611.197500", "144613.197500", "144615.197500", "144617.197500", "144619.197500", "144621.197500", "144623.197500", "144625.197500", "144627.197500", "144629.197500", "144631.197500", "144633.197500", "144635.197500", "144637.197500", "144639.197500", "144641.200000", "144643.200000", "144645.200000", "144647.200000", "144649.200000", "144651.200000", "144653.200000", "144655.200000", "144657.200000", "144659.200000", "144701.200000", "144703.200000", "144705.200000", "144707.200000", "144709.200000", "144711.200000", "144713.200000", "144715.200000", "144717.200000", "144719.200000", "144721.200000", "144723.200000", "144725.200000", "144727.200000", "144729.200000", "144731.200000", "144733.200000", "144735.200000", "144737.200000", "144739.200000", "144741.200000", "144743.200000", "144745.200000", "144747.200000", "144749.200000", "144751.200000", "144753.200000", "144755.200000", "144757.200000", "144759.200000", "144801.200000", "144803.200000", "144805.200000", "144807.200000", "144809.200000", "144811.200000", "144813.200000", "144815.200000", "144817.200000", "144819.200000", "144821.200000", "144823.200000", "144825.200000", "144827.200000", "144829.200000", "144831.200000", "144833.200000", "144835.200000", "144837.200000", "144839.200000", "144841.200000", "144843.200000", "144845.200000", "144847.200000", "144849.200000", "144851.200000", "144853.200000", "144855.200000", "144857.200000", "144859.200000", "144901.200000", "144903.200000", "144905.200000", "144907.200000", "144909.200000", "144911.200000", "144913.200000", "144915.200000", "144917.200000", "144919.200000", "144921.200000", "144923.200000", "144925.200000", "144927.200000", "144929.200000", "144931.200000", "144933.200000", "144935.200000", "144937.200000", "144939.200000", "144941.200000", "144943.200000", "144945.200000", "144947.200000", "144949.200000", "144951.200000", "144953.200000", "144955.200000", "144957.200000", "144959.200000", "145001.200000", "145003.200000", "145005.200000", "145007.200000", "145009.200000", "145011.200000", "145013.200000", "145015.200000", "145017.200000", "145019.200000", "145021.200000", "145023.200000", "145025.200000", "145027.200000", "145029.200000", "145031.200000", "145033.200000", "145035.200000", "145037.200000", "145039.200000", "145041.200000", "145043.200000", "145045.200000", "145047.200000", "145049.200000", "145051.200000", "145053.200000", "145055.200000", "145057.200000"],
      "ContentTime": ["144355.961000", "144356.954000", "144356.958000", "144358.454000", "144358.458000", "144358.467000", "144359.954000", "144400.954000", "144402.453000", "144404.453000", "144406.455000", "144408.455000", "144410.454000", "144412.455000", "144414.455000", "144416.455000", "144418.453000", "144420.452000", "144422.452000", "144424.454000", "144426.456000", "144428.455000", "144430.454000", "144432.453000", "144434.454000", "144436.454000", "144438.453000", "144440.454000", "144442.454000", "144444.454000", "144446.454000", "144448.454000", "144450.454000", "144452.453000", "144454.454000", "144456.453000", "144458.453000", "144500.454000", "144502.454000", "144504.455000", "144506.454000", "144508.455000", "144510.453000", "144512.453000", "144514.453000", "144516.454000", "144518.454000", "144520.454000", "144522.453000", "144524.453000", "144526.454000", "144528.453000", "144530.453000", "144532.452000", "144534.453000", "144536.453000", "144538.454000", "144540.454000", "144542.454000", "144544.454000", "144546.454000", "144548.454000", "144550.454000", "144552.453000", "144554.454000", "144556.454000", "144558.455000", "144600.454000", "144602.454000", "144604.453000", "144606.454000", "144608.453000", "144610.455000", "144612.454000", "144614.453000", "144616.455000", "144618.455000", "144620.455000", "144622.453000", "144624.454000", "144626.452000", "144628.454000", "144630.455000", "144632.456000", "144634.455000", "144636.455000", "144638.454000", "144640.454000", "144642.465000", "144644.455000", "144646.453000", "144648.455000", "144650.455000", "144652.455000", "144654.455000", "144656.454000", "144658.453000", "144700.454000", "144702.455000", "144704.455000", "144706.455000", "144708.455000", "144710.455000", "144712.455000", "144714.455000", "144716.454000", "144718.453000", "144720.455000", "144722.455000", "144724.455000", "144726.454000", "144728.455000", "144730.455000", "144732.455000", "144734.452000", "144736.454000", "144738.455000", "144740.455000", "144742.453000", "144744.455000", "144746.455000", "144748.455000", "144750.454000", "144752.452000", "144754.455000", "144756.455000", "144758.456000", "144800.455000", "144802.454000", "144804.454000", "144806.454000", "144808.454000", "144810.454000", "144812.455000", "144814.456000", "144816.455000", "144818.456000", "144820.455000", "144822.455000", "144824.455000", "144826.454000", "144828.454000", "144830.455000", "144832.455000", "144834.455000", "144836.455000", "144838.455000", "144840.455000", "144842.454000", "144844.454000", "144846.454000", "144848.455000", "144850.455000", "144852.455000", "144854.455000", "144856.455000", "144858.455000", "144900.454000", "144902.454000", "144904.454000", "144906.455000", "144908.455000", "144910.455000", "144912.455000", "144914.455000", "144916.456000", "144918.454000", "144920.454000", "144922.455000", "144924.455000", "144926.455000", "144928.456000", "144930.455000", "144932.455000", "144934.455000", "144936.455000", "144938.454000", "144940.455000", "144942.455000", "144944.455000", "144946.455000", "144948.455000", "144950.455000", "144952.454000", "144954.454000", "144956.454000", "144958.455000", "145000.456000", "145002.455000", "145004.455000", "145006.455000", "145008.456000", "145010.453000", "145012.454000", "145014.455000", "145016.456000", "145018.455000", "145020.455000", "145022.455000", "145024.455000", "145026.455000", "145028.454000", "145030.454000", "145032.455000", "145034.454000", "145036.454000", "145038.455000", "145040.455000", "145042.455000", "145044.455000", "145046.454000", "145048.453000", "145050.456000", "145052.455000", "145054.455000", "145056.455000", "145058.455000", "145100.134000"],
      "InstanceCreationTime": ["144355.961000", "144356.954000", "144356.958000", "144358.454000", "144358.458000", "144358.467000", "144359.954000", "144400.954000", "144402.453000", "144404.453000", "144406.455000", "144408.455000", "144410.454000", "144412.455000", "144414.455000", "144416.455000", "144418.453000", "144420.452000", "144422.452000", "144424.454000", "144426.456000", "144428.455000", "144430.454000", "144432.453000", "144434.454000", "144436.454000", "144438.453000", "144440.454000", "144442.454000", "144444.454000", "144446.454000", "144448.454000", "144450.454000", "144452.453000", "144454.454000", "144456.453000", "144458.453000", "144500.454000", "144502.454000", "144504.455000", "144506.454000", "144508.455000", "144510.453000", "144512.453000", "144514.453000", "144516.454000", "144518.454000", "144520.454000", "144522.453000", "144524.453000", "144526.454000", "144528.453000", "144530.453000", "144532.452000", "144534.453000", "144536.453000", "144538.454000", "144540.454000", "144542.454000", "144544.454000", "144546.454000", "144548.454000", "144550.454000", "144552.453000", "144554.454000", "144556.454000", "144558.455000", "144600.454000", "144602.454000", "144604.453000", "144606.454000", "144608.453000", "144610.455000", "144612.454000", "144614.453000", "144616.455000", "144618.455000", "144620.455000", "144622.453000", "144624.454000", "144626.452000", "144628.454000", "144630.455000", "144632.456000", "144634.455000", "144636.455000", "144638.454000", "144640.454000", "144642.465000", "144644.455000", "144646.453000", "144648.455000", "144650.455000", "144652.455000", "144654.455000", "144656.454000", "144658.453000", "144700.454000", "144702.455000", "144704.455000", "144706.455000", "144708.455000", "144710.455000", "144712.455000", "144714.455000", "144716.454000", "144718.453000", "144720.455000", "144722.455000", "144724.455000", "144726.454000", "144728.455000", "144730.455000", "144732.455000", "144734.452000", "144736.454000", "144738.455000", "144740.455000", "144742.453000", "144744.455000", "144746.455000", "144748.455000", "144750.454000", "144752.452000", "144754.455000", "144756.455000", "144758.456000", "144800.455000", "144802.454000", "144804.454000", "144806.454000", "144808.454000", "144810.454000", "144812.455000", "144814.456000", "144816.455000", "144818.456000", "144820.455000", "144822.455000", "144824.455000", "144826.454000", "144828.454000", "144830.455000", "144832.455000", "144834.455000", "144836.455000", "144838.455000", "144840.455000", "144842.454000", "144844.454000", "144846.454000", "144848.455000", "144850.455000", "144852.455000", "144854.455000", "144856.455000", "144858.455000", "144900.454000", "144902.454000", "144904.454000", "144906.455000", "144908.455000", "144910.455000", "144912.455000", "144914.455000", "144916.456000", "144918.454000", "144920.454000", "144922.455000", "144924.455000", "144926.455000", "144928.456000", "144930.455000", "144932.455000", "144934.455000", "144936.455000", "144938.454000", "144940.455000", "144942.455000", "144944.455000", "144946.455000", "144948.455000", "144950.455000", "144952.454000", "144954.454000", "144956.454000", "144958.455000", "145000.456000", "145002.455000", "145004.455000", "145006.455000", "145008.456000", "145010.453000", "145012.454000", "145014.455000", "145016.456000", "145018.455000", "145020.455000", "145022.455000", "145024.455000", "145026.455000", "145028.454000", "145030.454000", "145032.455000", "145034.454000", "145036.454000", "145038.455000", "145040.455000", "145042.455000", "145044.455000", "145046.454000", "145048.453000", "145050.456000", "145052.455000", "145054.455000", "145056.455000", "145058.455000", "145100.134000"],
      "InstanceNumber": [1, 2, 3, 4, 5, 6, 7, 8, 9, 10, 11, 12, 13, 14, 15, 16, 17, 18, 19, 20, 21, 22, 23, 24, 25, 26, 27, 28, 29, 30, 31, 32, 33, 34, 35, 36, 37, 38, 39, 40, 41, 42, 43, 44, 45, 46, 47, 48, 49, 50, 51, 52, 53, 54, 55, 56, 57, 58, 59, 60, 61, 62, 63, 64, 65, 66, 67, 68, 69, 70, 71, 72, 73, 74, 75, 76, 77, 78, 79, 80, 81, 82, 83, 84, 85, 86, 87, 88, 89, 90, 91, 92, 93, 94, 95, 96, 97, 98, 99, 100, 101, 102, 103, 104, 105, 106, 107, 108, 109, 110, 111, 112, 113, 114, 115, 116, 117, 118, 119, 120, 121, 122, 123, 124, 125, 126, 127, 128, 129, 130, 131, 132, 133, 134, 135, 136, 137, 138, 139, 140, 141, 142, 143, 144, 145, 146, 147, 148, 149, 150, 151, 152, 153, 154, 155, 156, 157, 158, 159, 160, 161, 162, 163, 164, 165, 166, 167, 168, 169, 170, 171, 172, 173, 174, 175, 176, 177, 178, 179, 180, 181, 182, 183, 184, 185, 186, 187, 188, 189, 190, 191, 192, 193, 194, 195, 196, 197, 198, 199, 200, 201, 202, 203, 204, 205, 206, 207, 208, 209, 210, 211, 212, 213, 214, 215, 216, 217, 218],
      "WindowCenter": [16546.0, 16522.0, 16507.0, 16523.0, 16517.0, 16514.0, 16515.0, 16503.0, 16504.0, 16505.0, 16504.0, 16524.0, 16518.0, 16504.0, 16497.0, 16489.0, 16493.0, 16501.0, 16505.0, 16508.0, 16498.0, 16497.0, 16503.0, 16502.0, 16518.0, 16497.0, 16492.0, 16497.0, 16516.0, 16509.0, 16510.0, 16518.0, 16509.0, 16495.0, 16497.0, 16500.0, 16502.0, 16505.0, 16500.0, 16513.0, 16488.0, 16501.0, 16541.0, 16519.0, 16529.0, 16525.0, 16524.0, 16513.0, 16517.0, 16501.0, 16509.0, 16524.0, 16515.0, 16519.0, 16522.0, 16512.0, 16517.0, 16524.0, 16505.0, 16513.0, 16511.0, 16526.0, 16511.0, 16512.0, 16512.0, 16510.0, 16508.0, 16485.0, 16516.0, 16509.0, 16499.0, 16505.0, 16507.0, 16495.0, 16507.0, 16512.0, 16490.0, 16510.0, 16519.0, 16524.0, 16518.0, 16519.0, 16516.0, 16510.0, 16514.0, 16526.0, 16493.0, 16499.0, 16497.0, 16509.0, 16497.0, 16510.0, 16523.0, 16527.0, 16504.0, 16515.0, 16516.0, 16510.0, 16523.0, 16512.0, 16498.0, 16529.0, 16505.0, 16511.0, 16514.0, 16517.0, 16524.0, 16501.0, 16498.0, 16523.0, 16499.0, 16524.0, 16522.0, 16531.0, 16520.0, 16533.0, 16518.0, 16505.0, 16500.0, 16522.0, 16521.0, 16541.0, 16519.0, 16507.0, 16515.0, 16517.0, 16512.0, 16512.0, 16521.0, 16507.0, 16517.0, 16515.0, 16504.0, 16501.0, 16518.0, 16506.0, 16524.0, 16528.0, 16528.0, 16513.0, 16545.0, 16531.0, 16535.0, 16523.0, 16512.0, 16523.0, 16509.0, 16525.0, 16542.0, 16532.0, 16527.0, 16531.0, 16522.0, 16511.0, 16516.0, 16537.0, 16521.0, 16519.0, 16505.0, 16507.0, 16526.0, 16524.0, 16524.0, 16525.0, 16526.0, 16533.0, 16538.0, 16544.0, 16525.0, 16515.0, 16523.0, 16512.0, 16517.0, 16521.0, 16529.0, 16522.0, 16513.0, 16528.0, 16528.0, 16531.0, 16523.0, 16530.0, 16510.0, 16535.0, 16520.0, 16530.0, 16526.0, 16514.0, 16514.0, 16523.0, 16531.0, 16509.0, 16535.0, 16513.0, 16503.0, 16537.0, 16532.0, 16521.0, 16545.0, 16535.0, 16525.0, 16520.0, 16525.0, 16528.0, 16530.0, 16524.0, 16519.0, 16507.0, 16511.0, 16525.0, 16533.0, 16539.0, 16519.0, 16505.0, 16533.0, 16533.0, 16534.0, 16534.0],
      "WindowWidth": [47515.0, 47456.0, 47561.0, 47640.0, 47610.0, 47593.0, 47567.0, 47558.0, 47570.0, 47559.0, 47531.0, 47507.0, 47490.0, 47454.0, 47422.0, 47402.0, 47408.0, 47465.0, 47416.0, 47379.0, 47372.0, 47369.0, 47374.0, 47322.0, 47267.0, 47318.0, 47408.0, 47385.0, 47359.0, 47354.0, 47329.0, 47296.0, 47263.0, 47291.0, 47280.0, 47229.0, 47218.0, 47194.0, 47178.0, 47109.0, 47235.0, 47311.0, 47301.0, 47260.0, 47241.0, 47212.0, 47185.0, 47203.0, 47140.0, 47140.0, 47213.0, 47226.0, 47151.0, 47140.0, 47157.0, 47242.0, 47247.0, 47172.0, 47105.0, 47138.0, 47202.0, 47213.0, 47177.0, 47293.0, 47296.0, 47136.0, 47081.0, 47210.0, 47270.0, 47241.0, 47141.0, 47143.0, 47198.0, 47230.0, 47200.0, 47166.0, 47096.0, 47241.0, 47288.0, 47253.0, 47196.0, 47169.0, 47180.0, 47243.0, 47259.0, 47174.0, 47137.0, 47127.0, 47139.0, 47084.0, 47142.0, 47203.0, 47253.0, 47256.0, 47198.0, 47114.0, 47142.0, 47241.0, 47253.0, 47204.0, 47220.0, 47230.0, 47265.0, 47295.0, 47247.0, 47261.0, 47238.0, 47211.0, 47221.0, 47251.0, 47287.0, 47281.0, 47279.0, 47285.0, 47329.0, 47262.0, 47237.0, 47266.0, 47274.0, 47264.0, 47250.0, 47159.0, 47170.0, 47242.0, 47327.0, 47340.0, 47309.0, 47283.0, 47343.0, 47360.0, 47274.0, 47233.0, 47212.0, 47288.0, 47313.0, 47320.0, 47330.0, 47308.0, 47284.0, 47311.0, 47297.0, 47273.0, 47274.0, 47278.0, 47232.0, 47240.0, 47282.0, 47280.0, 47253.0, 47272.0, 47308.0, 47285.0, 47238.0, 47244.0, 47313.0, 47303.0, 47251.0, 47247.0, 47251.0, 47267.0, 47270.0, 47293.0, 47280.0, 47267.0, 47306.0, 47312.0, 47264.0, 47217.0, 47281.0, 47313.0, 47305.0, 47257.0, 47234.0, 47263.0, 47270.0, 47239.0, 47309.0, 47308.0, 47231.0, 47233.0, 47251.0, 47259.0, 47283.0, 47275.0, 47266.0, 47217.0, 47202.0, 47219.0, 47285.0, 47292.0, 47271.0, 47295.0, 47249.0, 47219.0, 47343.0, 47327.0, 47311.0, 47279.0, 47255.0, 47208.0, 47203.0, 47251.0, 47333.0, 47322.0, 47283.0, 47239.0, 47197.0, 47229.0, 47295.0, 47307.0, 47274.0, 47225.0, 47264.0, 47319.0, 47288.0, 47301.0, 47366.0, 47419.0]
    },
    "slices": {}
  }
}