{
  "AcquisitionMatrixPE": 116,
  "AcquisitionNumber": 1,
  "AcquisitionTime": "15:00:2.305000",
  "BandwidthPerPixelPhaseEncode": 18.539,
  "BaseResolution": 116,
  "BodyPartExamined": "HEAD",
  "ConsistencyInfo": "N4_VD13D_LATEST_20130810",
  "ConversionSoftware": "dcm2niix",
  "ConversionSoftwareVersion": "v1.0.20190410  (JP2:OpenJPEG) (JP-LS:CharLS) GCC5.5.0",
  "DerivedVendorReportedEchoSpacing": 0.000930006,
  "DeviceSerialNumber": "66014",
  "DwellTime": 3e-06,
  "EchoTime": 0.03,
  "EchoTrainLength": 50,
  "EffectiveEchoSpacing": 0.000465003,
  "FlipAngle": 81,
  "ImageComments": "Unaliased_MB3_PE4",
  "ImageOrientationPatientDICOM": [0.999839, -0.0177603, -0.00244991, 0.0174522, 0.995437, -0.0938104],
  "ImageType": [
    "ORIGINAL",
    "PRIMARY",
    "M",
    "MB",
    "ND",
    "MOSAIC"
],
  "ImagingFrequency": 123.261,
  "InPlanePhaseEncodingDirectionDICOM": "COL",
  "InstitutionAddress": "Yiheyuan_Road_5_Beijing_Haidian_CN_100871",
  "InstitutionName": "Peking_Univeristy",
  "InstitutionalDepartmentName": "Department",
  "MRAcquisitionType": "2D",
  "MagneticFieldStrength": 3,
  "Manufacturer": "Siemens",
  "ManufacturersModelName": "Prisma",
  "Modality": "MR",
  "MultibandAccelerationFactor": 3,
  "ParallelReductionFactorInPlane": 2,
  "PartialFourier": 0.875,
  "PatientPosition": "HFS",
  "PercentPhaseFOV": 100,
  "PhaseEncodingDirection": "j-",
  "PhaseEncodingSteps": 101,
  "PhaseResolution": 1,
  "PixelBandwidth": 1435,
  "ProcedureStepDescription": "Research_Projects_64CH",
  "ProtocolName": "mbep2d_bold_MB3_learn3",
  "PulseSequenceDetails": "%CustomerSeq%_cmrr_mbep2d_bold",
  "ReceiveCoilActiveElements": "HC1-6",
  "ReceiveCoilName": "HeadNeck_64",
  "ReconMatrixPE": 116,
  "RefLinesPE": 44,
  "RepetitionTime": 2,
  "SAR": 0.0545361,
  "ScanOptions": "PFP_FS",
  "ScanningSequence": "EP",
  "SequenceName": "epfid2d1_116",
  "SequenceVariant": "SK_SS",
  "SeriesDescription": "mbep2d_bold_MB3_learn3",
  "SeriesNumber": 8,
  "ShimSetting": [-3462, -2118, -1942, 368, 26, -138, 64, 27],
  "SliceThickness": 1.9,
  "SliceTiming": [0, 0.9075, 1.815, 0.7425, 1.65, 0.5775, 1.485, 0.4125, 1.32, 0.2475, 1.155, 0.0825, 0.99, 1.8975, 0.825, 1.7325, 0.66, 1.5675, 0.495, 1.4025, 0.33, 1.2375, 0.165, 1.0725, 0, 0.9075, 1.815, 0.7425, 1.65, 0.5775, 1.485, 0.4125, 1.32, 0.2475, 1.155, 0.0825, 0.99, 1.8975, 0.825, 1.7325, 0.66, 1.5675, 0.495, 1.4025, 0.33, 1.2375, 0.165, 1.0725, 0, 0.9075, 1.815, 0.7425, 1.65, 0.5775, 1.485, 0.4125, 1.32, 0.2475, 1.155, 0.0825, 0.99, 1.8975, 0.825, 1.7325, 0.66, 1.5675, 0.495, 1.4025, 0.33, 1.2375, 0.165, 1.0725],
  "SoftwareVersions": "syngo_MR_D13D",
  "SpacingBetweenSlices": 1.9,
  "StationName": "AWP66014",
  "TaskName": "updating",
  "TotalReadoutTime": 0.0534753,
  "TxRefAmp": 217.28,
  "WipMemBlock": "4da856ea-6f1c-4297-9485-2f932bb7acf3||Sequence: vd13d/master r/0735857; Nov 19 2014 09:21:40 by eja",
  "dcmmeta_affine": [
    [-1.8962469100952148, 0.033099059015512466, -0.007799172308295965, 107.44214630126953],
    [0.03368331119418144, 1.8878979682922363, -0.1781298816204071, -97.27434539794922],
    [-0.004646374378353357, 0.1779162734746933, 1.891615390777588, -76.77132415771484],
    [0.0, 0.0, 0.0, 1.0]
],
  "dcmmeta_reorient_transform": [
    [0.0, -1.0, 0.0, 115.0],
    [1.0, 0.0, 0.0, 0.0],
    [0.0, 0.0, 1.0, 0.0],
    [0.0, 0.0, 0.0, 1.0]
],
  "dcmmeta_shape": [116, 116, 72, 218],
  "dcmmeta_slice_dim": 2,
  "dcmmeta_version": 0.6,
  "global": {
    "const": {
      "AcquisitionMatrix": [116, 0, 0, 116],
      "AngioFlag": "N",
      "BitsAllocated": 16,
      "BitsStored": 16,
      "BodyPartExamined": "HEAD",
      "Columns": 1044,
      "EchoNumbers": 1,
      "EchoTime": 30.0,
      "EchoTrainLength": 50,
      "FlipAngle": 81.0,
      "HighBit": 15,
      "ImageOrientationPatient": [0.9998392721051, -0.0177602903999, -0.0024499063793, 0.01745223040933, 0.99543710425114, -0.0938103999237],
      "ImagePositionPatient": [-1006.4650592533, -980.18951848324, 28.398113907932],
      "ImageType": [
        "ORIGINAL",
        "PRIMARY",
        "M",
        "MB",
        "ND",
        "MOSAIC"
],
      "ImagedNucleus": "1H",
      "ImagingFrequency": 123.26058,
      "InPlanePhaseEncodingDirection": "COL",
      "LargestImagePixelValue": 65535,
      "MRAcquisitionType": "2D",
      "MagneticFieldStrength": 3.0,
      "Manufacturer": "SIEMENS",
      "ManufacturerModelName": "Prisma",
      "Modality": "MR",
      "NumberOfAverages": 1.0,
      "NumberOfPhaseEncodingSteps": 101,
      "PercentPhaseFieldOfView": 100.0,
      "PercentSampling": 100.0,
      "PerformedProcedureStepStartTime": "142503.536000",
      "PhotometricInterpretation": "MONOCHROME2",
      "PixelBandwidth": 1435.0,
      "PixelRepresentation": 0,
      "PixelSpacing": [1.8965517282486, 1.8965517282486],
      "ProtocolName": "mbep2d_bold_MB3_learn3",
      "RepetitionTime": 2000.0,
      "Rows": 1044,
      "SAR": 0.05453609639506,
      "SamplesPerPixel": 1,
      "ScanOptions": [
        "PFP",
        "FS"
],
      "ScanningSequence": "EP",
      "SequenceName": "epfid2d1_116",
      "SequenceVariant": [
        "SK",
        "SS"
],
      "SeriesDescription": "mbep2d_bold_MB3_learn3",
      "SeriesNumber": 8,
      "SeriesTime": "150013.957000",
      "SliceLocation": -67.753852869719,
      "SliceThickness": 1.8999999761581,
      "SmallestImagePixelValue": 0,
      "SoftwareVersions": "syngo MR D13D",
      "SpacingBetweenSlices": 1.8999999980217,
      "SpecificCharacterSet": "ISO_IR 100",
      "StudyID": "1",
      "StudyTime": "142503.466000",
      "TimeOfLastCalibration": ["123723.000000", "123723.000000"],
      "TransmitCoilName": "Body",
      "VariableFlipAngleFlag": "N",
      "WindowCenterWidthExplanation": "Algo1",
      "dBdt": 0.0},
    "slices": {}
  },
  "time": {
    "samples": {
      "AcquisitionNumber": [1, 2, 3, 4, 5, 6, 7, 8, 9, 10, 11, 12, 13, 14, 15, 16, 17, 18, 19, 20, 21, 22, 23, 24, 25, 26, 27, 28, 29, 30, 31, 32, 33, 34, 35, 36, 37, 38, 39, 40, 41, 42, 43, 44, 45, 46, 47, 48, 49, 50, 51, 52, 53, 54, 55, 56, 57, 58, 59, 60, 61, 62, 63, 64, 65, 66, 67, 68, 69, 70, 71, 72, 73, 74, 75, 76, 77, 78, 79, 80, 81, 82, 83, 84, 85, 86, 87, 88, 89, 90, 91, 92, 93, 94, 95, 96, 97, 98, 99, 100, 101, 102, 103, 104, 105, 106, 107, 108, 109, 110, 111, 112, 113, 114, 115, 116, 117, 118, 119, 120, 121, 122, 123, 124, 125, 126, 127, 128, 129, 130, 131, 132, 133, 134, 135, 136, 137, 138, 139, 140, 141, 142, 143, 144, 145, 146, 147, 148, 149, 150, 151, 152, 153, 154, 155, 156, 157, 158, 159, 160, 161, 162, 163, 164, 165, 166, 167, 168, 169, 170, 171, 172, 173, 174, 175, 176, 177, 178, 179, 180, 181, 182, 183, 184, 185, 186, 187, 188, 189, 190, 191, 192, 193, 194, 195, 196, 197, 198, 199, 200, 201, 202, 203, 204, 205, 206, 207, 208, 209, 210, 211, 212, 213, 214, 215, 216, 217, 218],
      "AcquisitionTime": ["150002.305000", "150004.305000", "150006.305000", "150008.305000", "150010.305000", "150012.305000", "150014.305000", "150016.305000", "150018.305000", "150020.305000", "150022.305000", "150024.305000", "150026.305000", "150028.305000", "150030.305000", "150032.305000", "150034.305000", "150036.305000", "150038.305000", "150040.305000", "150042.305000", "150044.305000", "150046.305000", "150048.305000", "150050.305000", "150052.305000", "150054.305000", "150056.305000", "150058.305000", "150100.305000", "150102.305000", "150104.305000", "150106.305000", "150108.305000", "150110.305000", "150112.305000", "150114.305000", "150116.305000", "150118.305000", "150120.305000", "150122.305000", "150124.305000", "150126.305000", "150128.305000", "150130.305000", "150132.305000", "150134.305000", "150136.305000", "150138.305000", "150140.305000", "150142.305000", "150144.305000", "150146.305000", "150148.305000", "150150.305000", "150152.305000", "150154.305000", "150156.305000", "150158.305000", "150200.305000", "150202.305000", "150204.305000", "150206.305000", "150208.305000", "150210.305000", "150212.305000", "150214.305000", "150216.305000", "150218.305000", "150220.305000", "150222.305000", "150224.305000", "150226.305000", "150228.305000", "150230.305000", "150232.305000", "150234.305000", "150236.305000", "150238.305000", "150240.305000", "150242.305000", "150244.305000", "150246.305000", "150248.305000", "150250.305000", "150252.305000", "150254.305000", "150256.305000", "150258.305000", "150300.305000", "150302.305000", "150304.305000", "150306.305000", "150308.305000", "150310.305000", "150312.305000", "150314.305000", "150316.305000", "150318.305000", "150320.305000", "150322.305000", "150324.305000", "150326.305000", "150328.305000", "150330.305000", "150332.305000", "150334.305000", "150336.305000", "150338.305000", "150340.305000", "150342.305000", "150344.305000", "150346.305000", "150348.305000", "150350.305000", "150352.305000", "150354.305000", "150356.305000", "150358.305000", "150400.305000", "150402.305000", "150404.305000", "150406.305000", "150408.305000", "150410.305000", "150412.305000", "150414.305000", "150416.305000", "150418.305000", "150420.305000", "150422.305000", "150424.305000", "150426.305000", "150428.305000", "150430.305000", "150432.305000", "150434.305000", "150436.305000", "150438.305000", "150440.305000", "150442.305000", "150444.305000", "150446.305000", "150448.305000", "150450.305000", "150452.305000", "150454.305000", "150456.305000", "150458.305000", "150500.305000", "150502.305000", "150504.305000", "150506.305000", "150508.305000", "150510.305000", "150512.305000", "150514.305000", "150516.305000", "150518.305000", "150520.305000", "150522.305000", "150524.305000", "150526.305000", "150528.305000", "150530.305000", "150532.305000", "150534.307500", "150536.307500", "150538.307500", "150540.307500", "150542.307500", "150544.307500", "150546.307500", "150548.307500", "150550.307500", "150552.307500", "150554.307500", "150556.307500", "150558.307500", "150600.307500", "150602.307500", "150604.307500", "150606.307500", "150608.307500", "150610.307500", "150612.307500", "150614.307500", "150616.307500", "150618.307500", "150620.307500", "150622.307500", "150624.307500", "150626.307500", "150628.307500", "150630.307500", "150632.307500", "150634.307500", "150636.307500", "150638.307500", "150640.307500", "150642.307500", "150644.307500", "150646.307500", "150648.307500", "150650.307500", "150652.307500", "150654.307500", "150656.307500", "150658.307500", "150700.307500", "150702.307500", "150704.307500", "150706.307500", "150708.307500", "150710.307500", "150712.307500", "150714.307500", "150716.307500"],
      "ContentTime": ["150013.963000", "150014.955000", "150015.955000", "150015.960000", "150016.957000", "150016.961000", "150017.956000", "150019.457000", "150021.457000", "150023.456000", "150025.456000", "150027.457000", "150029.457000", "150031.457000", "150033.457000", "150035.457000", "150037.457000", "150039.457000", "150041.456000", "150043.456000", "150045.458000", "150047.457000", "150049.457000", "150051.457000", "150053.457000", "150055.457000", "150057.456000", "150059.456000", "150101.457000", "150103.457000", "150105.457000", "150107.457000", "150109.458000", "150111.457000", "150113.457000", "150115.456000", "150117.456000", "150119.457000", "150121.457000", "150123.457000", "150125.457000", "150127.457000", "150129.457000", "150131.458000", "150133.456000", "150135.457000", "150137.456000", "150139.456000", "150141.457000", "150143.458000", "150145.457000", "150147.457000", "150149.457000", "150151.456000", "150153.457000", "150155.457000", "150157.457000", "150159.457000", "150201.457000", "150203.457000", "150205.457000", "150207.457000", "150209.456000", "150211.457000", "150213.457000", "150215.458000", "150217.457000", "150219.457000", "150221.457000", "150223.457000", "150225.456000", "150227.456000", "150229.457000", "150231.457000", "150233.457000", "150235.458000", "150237.457000", "150239.457000", "150241.457000", "150243.456000", "150245.457000", "150247.457000", "150249.457000", "150251.457000", "150253.457000", "150255.457000", "150257.458000", "150259.457000", "150301.457000", "150303.457000", "150305.457000", "150307.457000", "150309.457000", "150311.457000", "150313.457000", "150315.457000", "150317.456000", "150319.456000", "150321.457000", "150323.457000", "150325.457000", "150327.457000", "150329.457000", "150331.457000", "150333.457000", "150335.456000", "150337.455000", "150339.456000", "150341.457000", "150343.457000", "150345.458000", "150347.457000", "150349.457000", "150351.457000", "150353.456000", "150355.456000", "150357.458000", "150359.457000", "150401.457000", "150403.457000", "150405.457000", "150407.457000", "150409.457000", "150411.456000", "150413.457000", "150415.458000", "150417.457000", "150419.457000", "150421.457000", "150423.457000", "150425.457000", "150427.456000", "150429.465000", "150431.457000", "150433.457000", "150435.457000", "150437.457000", "150439.457000", "150441.457000", "150443.457000", "150445.454000", "150447.456000", "150449.457000", "150451.457000", "150453.457000", "150455.457000", "150457.457000", "150459.457000", "150501.457000", "150503.456000", "150505.456000", "150507.457000", "150509.455000", "150511.457000", "150513.457000", "150515.457000", "150517.457000", "150519.458000", "150521.456000", "150523.457000", "150525.458000", "150527.456000", "150529.457000", "150531.457000", "150533.457000", "150535.457000", "150537.456000", "150539.456000", "150541.455000", "150543.457000", "150545.457000", "150547.457000", "150549.457000", "150551.457000", "150553.457000", "150555.456000", "150557.457000", "150559.457000", "150601.457000", "150603.457000", "150605.457000", "150607.458000", "150609.457000", "150611.457000", "150613.455000", "150615.456000", "150617.457000", "150619.457000", "150621.457000", "150623.457000", "150625.457000", "150627.457000", "150629.457000", "150631.456000", "150633.457000", "150635.456000", "150637.457000", "150639.457000", "150641.457000", "150643.457000", "150645.457000", "150647.455000", "150649.456000", "150651.457000", "150653.457000", "150655.457000", "150657.457000", "150659.458000", "150701.457000", "150703.457000", "150705.456000", "150707.456000", "150709.457000", "150711.457000", "150713.457000", "150715.457000", "150717.457000", "150719.123000"],
      "InstanceCreationTime": ["150013.963000", "150014.955000", "150015.955000", "150015.960000", "150016.957000", "150016.961000", "150017.956000", "150019.457000", "150021.457000", "150023.456000", "150025.456000", "150027.457000", "150029.457000", "150031.457000", "150033.457000", "150035.457000", "150037.457000", "150039.457000", "150041.456000", "150043.456000", "150045.458000", "150047.457000", "150049.457000", "150051.457000", "150053.457000", "150055.457000", "150057.456000", "150059.456000", "150101.457000", "150103.457000", "150105.457000", "150107.457000", "150109.458000", "150111.457000", "150113.457000", "150115.456000", "150117.456000", "150119.457000", "150121.457000", "150123.457000", "150125.457000", "150127.457000", "150129.457000", "150131.458000", "150133.456000", "150135.457000", "150137.456000", "150139.456000", "150141.457000", "150143.458000", "150145.457000", "150147.457000", "150149.457000", "150151.456000", "150153.457000", "150155.457000", "150157.457000", "150159.457000", "150201.457000", "150203.457000", "150205.457000", "150207.457000", "150209.456000", "150211.457000", "150213.457000", "150215.458000", "150217.457000", "150219.457000", "150221.457000", "150223.457000", "150225.456000", "150227.456000", "150229.457000", "150231.457000", "150233.457000", "150235.458000", "150237.457000", "150239.457000", "150241.457000", "150243.456000", "150245.457000", "150247.457000", "150249.457000", "150251.457000", "150253.457000", "150255.457000", "150257.458000", "150259.457000", "150301.457000", "150303.457000", "150305.457000", "150307.457000", "150309.457000", "150311.457000", "150313.457000", "150315.457000", "150317.456000", "150319.456000", "150321.457000", "150323.457000", "150325.457000", "150327.457000", "150329.457000", "150331.457000", "150333.457000", "150335.456000", "150337.455000", "150339.456000", "150341.457000", "150343.457000", "150345.458000", "150347.457000", "150349.457000", "150351.457000", "150353.456000", "150355.456000", "150357.458000", "150359.457000", "150401.457000", "150403.457000", "150405.457000", "150407.457000", "150409.457000", "150411.456000", "150413.457000", "150415.458000", "150417.457000", "150419.457000", "150421.457000", "150423.457000", "150425.457000", "150427.456000", "150429.465000", "150431.457000", "150433.457000", "150435.457000", "150437.457000", "150439.457000", "150441.457000", "150443.457000", "150445.454000", "150447.456000", "150449.457000", "150451.457000", "150453.457000", "150455.457000", "150457.457000", "150459.457000", "150501.457000", "150503.456000", "150505.456000", "150507.457000", "150509.455000", "150511.457000", "150513.457000", "150515.457000", "150517.457000", "150519.458000", "150521.456000", "150523.457000", "150525.458000", "150527.456000", "150529.457000", "150531.457000", "150533.457000", "150535.457000", "150537.456000", "150539.456000", "150541.455000", "150543.457000", "150545.457000", "150547.457000", "150549.457000", "150551.457000", "150553.457000", "150555.456000", "150557.457000", "150559.457000", "150601.457000", "150603.457000", "150605.457000", "150607.458000", "150609.457000", "150611.457000", "150613.455000", "150615.456000", "150617.457000", "150619.457000", "150621.457000", "150623.457000", "150625.457000", "150627.457000", "150629.457000", "150631.456000", "150633.457000", "150635.456000", "150637.457000", "150639.457000", "150641.457000", "150643.457000", "150645.457000", "150647.455000", "150649.456000", "150651.457000", "150653.457000", "150655.457000", "150657.457000", "150659.458000", "150701.457000", "150703.457000", "150705.456000", "150707.456000", "150709.457000", "150711.457000", "150713.457000", "150715.457000", "150717.457000", "150719.123000"],
      "InstanceNumber": [1, 2, 3, 4, 5, 6, 7, 8, 9, 10, 11, 12, 13, 14, 15, 16, 17, 18, 19, 20, 21, 22, 23, 24, 25, 26, 27, 28, 29, 30, 31, 32, 33, 34, 35, 36, 37, 38, 39, 40, 41, 42, 43, 44, 45, 46, 47, 48, 49, 50, 51, 52, 53, 54, 55, 56, 57, 58, 59, 60, 61, 62, 63, 64, 65, 66, 67, 68, 69, 70, 71, 72, 73, 74, 75, 76, 77, 78, 79, 80, 81, 82, 83, 84, 85, 86, 87, 88, 89, 90, 91, 92, 93, 94, 95, 96, 97, 98, 99, 100, 101, 102, 103, 104, 105, 106, 107, 108, 109, 110, 111, 112, 113, 114, 115, 116, 117, 118, 119, 120, 121, 122, 123, 124, 125, 126, 127, 128, 129, 130, 131, 132, 133, 134, 135, 136, 137, 138, 139, 140, 141, 142, 143, 144, 145, 146, 147, 148, 149, 150, 151, 152, 153, 154, 155, 156, 157, 158, 159, 160, 161, 162, 163, 164, 165, 166, 167, 168, 169, 170, 171, 172, 173, 174, 175, 176, 177, 178, 179, 180, 181, 182, 183, 184, 185, 186, 187, 188, 189, 190, 191, 192, 193, 194, 195, 196, 197, 198, 199, 200, 201, 202, 203, 204, 205, 206, 207, 208, 209, 210, 211, 212, 213, 214, 215, 216, 217, 218],
      "WindowCenter": [16650.0, 16586.0, 16590.0, 16589.0, 16570.0, 16566.0, 16560.0, 16537.0, 16561.0, 16553.0, 16551.0, 16548.0, 16537.0, 16544.0, 16564.0, 16583.0, 16563.0, 16557.0, 16564.0, 16566.0, 16552.0, 16544.0, 16546.0, 16554.0, 16570.0, 16573.0, 16558.0, 16544.0, 16551.0, 16560.0, 16533.0, 16550.0, 16544.0, 16556.0, 16548.0, 16557.0, 16545.0, 16550.0, 16555.0, 16560.0, 16547.0, 16571.0, 16567.0, 16563.0, 16560.0, 16560.0, 16559.0, 16564.0, 16536.0, 16545.0, 16549.0, 16573.0, 16567.0, 16561.0, 16542.0, 16546.0, 16542.0, 16541.0, 16548.0, 16541.0, 16547.0, 16528.0, 16563.0, 16558.0, 16552.0, 16560.0, 16550.0, 16574.0, 16566.0, 16571.0, 16567.0, 16539.0, 16564.0, 16555.0, 16541.0, 16559.0, 16563.0, 16558.0, 16580.0, 16555.0, 16563.0, 16576.0, 16556.0, 16566.0, 16574.0, 16561.0, 16543.0, 16566.0, 16551.0, 16557.0, 16548.0, 16548.0, 16571.0, 16560.0, 16573.0, 16566.0, 16554.0, 16554.0, 16546.0, 16545.0, 16549.0, 16579.0, 16558.0, 16550.0, 16564.0, 16572.0, 16570.0, 16563.0, 16565.0, 16590.0, 16584.0, 16580.0, 16577.0, 16549.0, 16590.0, 16573.0, 16576.0, 16567.0, 16577.0, 16580.0, 16568.0, 16574.0, 16563.0, 16573.0, 16579.0, 16570.0, 16570.0, 16581.0, 16564.0, 16582.0, 16578.0, 16581.0, 16572.0, 16551.0, 16583.0, 16582.0, 16568.0, 16578.0, 16570.0, 16587.0, 16585.0, 16591.0, 16585.0, 16599.0, 16592.0, 16586.0, 16587.0, 16588.0, 16582.0, 16579.0, 16582.0, 16585.0, 16591.0, 16581.0, 16576.0, 16595.0, 16587.0, 16594.0, 16585.0, 16587.0, 16591.0, 16575.0, 16583.0, 16581.0, 16573.0, 16599.0, 16609.0, 16592.0, 16602.0, 16572.0, 16583.0, 16579.0, 16589.0, 16586.0, 16588.0, 16608.0, 16587.0, 16590.0, 16572.0, 16572.0, 16596.0, 16620.0, 16594.0, 16592.0, 16593.0, 16581.0, 16594.0, 16602.0, 16591.0, 16603.0, 16614.0, 16595.0, 16573.0, 16572.0, 16561.0, 16581.0, 16573.0, 16579.0, 16577.0, 16560.0, 16593.0, 16575.0, 16596.0, 16592.0, 16589.0, 16588.0, 16593.0, 16584.0, 16601.0, 16615.0, 16593.0, 16597.0, 16575.0, 16575.0, 16585.0, 16591.0, 16589.0, 16607.0],
      "WindowWidth": [47402.0, 47391.0, 47445.0, 47429.0, 47363.0, 47267.0, 47250.0, 47258.0, 47250.0, 47206.0, 47165.0, 47179.0, 47181.0, 47214.0, 47215.0, 47191.0, 47163.0, 47184.0, 47178.0, 47101.0, 47155.0, 47241.0, 47253.0, 47248.0, 47246.0, 47209.0, 47171.0, 47175.0, 47154.0, 47108.0, 47088.0, 47139.0, 47175.0, 47198.0, 47193.0, 47198.0, 47229.0, 47248.0, 47238.0, 47241.0, 47336.0, 47304.0, 47235.0, 47230.0, 47254.0, 47267.0, 47279.0, 47243.0, 47235.0, 47255.0, 47324.0, 47263.0, 47194.0, 47176.0, 47174.0, 47191.0, 47291.0, 47278.0, 47219.0, 47162.0, 47113.0, 47138.0, 47137.0, 47107.0, 47117.0, 47175.0, 47339.0, 47343.0, 47300.0, 47264.0, 47272.0, 47266.0, 47256.0, 47250.0, 47280.0, 47266.0, 47269.0, 47317.0, 47282.0, 47210.0, 47216.0, 47186.0, 47236.0, 47258.0, 47236.0, 47188.0, 47187.0, 47165.0, 47143.0, 47147.0, 47283.0, 47376.0, 47354.0, 47320.0, 47275.0, 47245.0, 47223.0, 47222.0, 47217.0, 47229.0, 47272.0, 47204.0, 47212.0, 47299.0, 47310.0, 47290.0, 47301.0, 47268.0, 47348.0, 47367.0, 47349.0, 47282.0, 47213.0, 47259.0, 47249.0, 47250.0, 47304.0, 47439.0, 47397.0, 47280.0, 47233.0, 47250.0, 47295.0, 47237.0, 47203.0, 47236.0, 47288.0, 47269.0, 47270.0, 47243.0, 47266.0, 47295.0, 47302.0, 47312.0, 47284.0, 47257.0, 47274.0, 47280.0, 47353.0, 47366.0, 47351.0, 47328.0, 47325.0, 47297.0, 47252.0, 47247.0, 47248.0, 47234.0, 47204.0, 47202.0, 47243.0, 47271.0, 47236.0, 47242.0, 47291.0, 47318.0, 47301.0, 47279.0, 47273.0, 47209.0, 47198.0, 47239.0, 47256.0, 47230.0, 47303.0, 47387.0, 47369.0, 47290.0, 47219.0, 47211.0, 47257.0, 47307.0, 47315.0, 47324.0, 47300.0, 47235.0, 47221.0, 47198.0, 47198.0, 47276.0, 47307.0, 47232.0, 47189.0, 47213.0, 47279.0, 47336.0, 47320.0, 47286.0, 47329.0, 47338.0, 47267.0, 47216.0, 47238.0, 47289.0, 47308.0, 47283.0, 47290.0, 47268.0, 47293.0, 47333.0, 47254.0, 47265.0, 47322.0, 47358.0, 47328.0, 47274.0, 47291.0, 47351.0, 47377.0, 47346.0, 47317.0, 47254.0, 47224.0, 47239.0, 47286.0, 47291.0, 47276.0, 47286.0]
    },
    "slices": {}
  }
}