{
  "AcquisitionMatrixPE": 116,
  "AcquisitionNumber": 1,
  "AcquisitionTime": "11:15:28.937500",
  "BandwidthPerPixelPhaseEncode": 18.539,
  "BaseResolution": 116,
  "BodyPartExamined": "HEAD",
  "ConsistencyInfo": "N4_VD13D_LATEST_20130810",
  "ConversionSoftware": "dcm2niix",
  "ConversionSoftwareVersion": "v1.0.20190410  (JP2:OpenJPEG) (JP-LS:CharLS) GCC5.5.0",
  "DerivedVendorReportedEchoSpacing": 0.000930006,
  "DeviceSerialNumber": "66014",
  "DwellTime": 3e-06,
  "EchoTime": 0.03,
  "EchoTrainLength": 50,
  "EffectiveEchoSpacing": 0.000465003,
  "FlipAngle": 81,
  "ImageComments": "Unaliased_MB3_PE4",
  "ImageOrientationPatientDICOM": [0.997002, 0.0680869, 0.0367537, -0.0679688, 0.997678, -0.00445546],
  "ImageType": [
    "ORIGINAL",
    "PRIMARY",
    "M",
    "MB",
    "ND",
    "MOSAIC"
],
  "ImagingFrequency": 123.261,
  "InPlanePhaseEncodingDirectionDICOM": "COL",
  "InstitutionAddress": "Yiheyuan_Road_5_Beijing_Haidian_CN_100871",
  "InstitutionName": "Peking_Univeristy",
  "InstitutionalDepartmentName": "Department",
  "MRAcquisitionType": "2D",
  "MagneticFieldStrength": 3,
  "Manufacturer": "Siemens",
  "ManufacturersModelName": "Prisma",
  "Modality": "MR",
  "MultibandAccelerationFactor": 3,
  "ParallelReductionFactorInPlane": 2,
  "PartialFourier": 0.875,
  "PatientPosition": "HFS",
  "PercentPhaseFOV": 100,
  "PhaseEncodingDirection": "j-",
  "PhaseEncodingSteps": 101,
  "PhaseResolution": 1,
  "PixelBandwidth": 1435,
  "ProcedureStepDescription": "Research_Projects_64CH",
  "ProtocolName": "mbep2d_bold_MB3_loca1",
  "PulseSequenceDetails": "%CustomerSeq%_cmrr_mbep2d_bold",
  "ReceiveCoilActiveElements": "HC1-6",
  "ReceiveCoilName": "HeadNeck_64",
  "ReconMatrixPE": 116,
  "RefLinesPE": 44,
  "RepetitionTime": 2,
  "SAR": 0.063116,
  "ScanOptions": "PFP_FS",
  "ScanningSequence": "EP",
  "SequenceName": "epfid2d1_116",
  "SequenceVariant": "SK_SS",
  "SeriesDescription": "mbep2d_bold_MB3_loca1",
  "SeriesNumber": 9,
  "ShimSetting": [-3439, -2106, -1974, 340, 0, -372, -93, -28],
  "SliceThickness": 1.9,
  "SliceTiming": [0, 0.9075, 1.815, 0.7425, 1.65, 0.5775, 1.485, 0.4125, 1.32, 0.2475, 1.155, 0.0825, 0.99, 1.8975, 0.825, 1.7325, 0.66, 1.5675, 0.495, 1.4025, 0.33, 1.2375, 0.165, 1.0725, 0, 0.9075, 1.815, 0.7425, 1.65, 0.5775, 1.485, 0.4125, 1.32, 0.2475, 1.155, 0.0825, 0.99, 1.8975, 0.825, 1.7325, 0.66, 1.5675, 0.495, 1.4025, 0.33, 1.2375, 0.165, 1.0725, 0, 0.9075, 1.815, 0.7425, 1.65, 0.5775, 1.485, 0.4125, 1.32, 0.2475, 1.155, 0.0825, 0.99, 1.8975, 0.825, 1.7325, 0.66, 1.5675, 0.495, 1.4025, 0.33, 1.2375, 0.165, 1.0725],
  "SoftwareVersions": "syngo_MR_D13D",
  "SpacingBetweenSlices": 1.9,
  "StationName": "AWP66014",
  "TaskName": "localizer",
  "TotalReadoutTime": 0.0534753,
  "TxRefAmp": 230.968,
  "WipMemBlock": "b7adcc65-7131-499d-99b0-f7829453b573||Sequence: vd13d/master r/0735857; Nov 19 2014 09:21:40 by eja",
  "dcmmeta_affine": [
    [-1.8908661603927612, -0.1289062798023224, 0.07024622708559036, 116.69873809814453],
    [-0.1291303187608719, 1.8921469449996948, -0.003693593433126807, -87.83875274658203],
    [0.0697053000330925, 0.008450005203485489, 1.8986973762512207, -69.85041046142578],
    [0.0, 0.0, 0.0, 1.0]
],
  "dcmmeta_reorient_transform": [
    [0.0, -1.0, 0.0, 115.0],
    [1.0, 0.0, 0.0, 0.0],
    [0.0, 0.0, 1.0, 0.0],
    [0.0, 0.0, 0.0, 1.0]
],
  "dcmmeta_shape": [116, 116, 72, 164],
  "dcmmeta_slice_dim": 2,
  "dcmmeta_version": 0.6,
  "global": {
    "const": {
      "AcquisitionMatrix": [116, 0, 0, 116],
      "AngioFlag": "N",
      "BitsAllocated": 16,
      "BitsStored": 16,
      "BodyPartExamined": "HEAD",
      "Columns": 1044,
      "EchoNumbers": 1,
      "EchoTime": 30.0,
      "EchoTrainLength": 50,
      "FlipAngle": 81.0,
      "HighBit": 15,
      "ImageOrientationPatient": [0.9970021765758, 0.0680868947649, 0.03675370273046, -0.0679687668214, 0.99767750081799, -0.0044554571431],
      "ImagePositionPatient": [-919.42391945387, -1067.630817978, -97.301114641256],
      "ImageType": [
        "ORIGINAL",
        "PRIMARY",
        "M",
        "MB",
        "ND",
        "MOSAIC"
],
      "ImagedNucleus": "1H",
      "ImagingFrequency": 123.260546,
      "InPlanePhaseEncodingDirection": "COL",
      "LargestImagePixelValue": 65535,
      "MRAcquisitionType": "2D",
      "MagneticFieldStrength": 3.0,
      "Manufacturer": "SIEMENS",
      "ManufacturerModelName": "Prisma",
      "Modality": "MR",
      "NumberOfAverages": 1.0,
      "NumberOfPhaseEncodingSteps": 101,
      "PercentPhaseFieldOfView": 100.0,
      "PercentSampling": 100.0,
      "PerformedProcedureStepStartTime": "102535.668000",
      "PhotometricInterpretation": "MONOCHROME2",
      "PixelBandwidth": 1435.0,
      "PixelRepresentation": 0,
      "PixelSpacing": [1.8965517282486, 1.8965517282486],
      "ProtocolName": "mbep2d_bold_MB3_loca1",
      "RepetitionTime": 2000.0,
      "Rows": 1044,
      "SAR": 0.06311596126948,
      "SamplesPerPixel": 1,
      "ScanOptions": [
        "PFP",
        "FS"
],
      "ScanningSequence": "EP",
      "SequenceName": "epfid2d1_116",
      "SequenceVariant": [
        "SK",
        "SS"
],
      "SeriesDescription": "mbep2d_bold_MB3_loca1",
      "SeriesNumber": 9,
      "SeriesTime": "111540.858000",
      "SliceLocation": -65.317212040495,
      "SliceThickness": 1.8999999761581,
      "SmallestImagePixelValue": 0,
      "SoftwareVersions": "syngo MR D13D",
      "SpacingBetweenSlices": 1.8999999274192,
      "SpecificCharacterSet": "ISO_IR 100",
      "StudyID": "1",
      "StudyTime": "102535.620000",
      "TimeOfLastCalibration": ["123723.000000", "123723.000000"],
      "TransmitCoilName": "Body",
      "VariableFlipAngleFlag": "N",
      "WindowCenterWidthExplanation": "Algo1",
      "dBdt": 0.0},
    "slices": {}
  },
  "time": {
    "samples": {
      "AcquisitionNumber": [1, 2, 3, 4, 5, 6, 7, 8, 9, 10, 11, 12, 13, 14, 15, 16, 17, 18, 19, 20, 21, 22, 23, 24, 25, 26, 27, 28, 29, 30, 31, 32, 33, 34, 35, 36, 37, 38, 39, 40, 41, 42, 43, 44, 45, 46, 47, 48, 49, 50, 51, 52, 53, 54, 55, 56, 57, 58, 59, 60, 61, 62, 63, 64, 65, 66, 67, 68, 69, 70, 71, 72, 73, 74, 75, 76, 77, 78, 79, 80, 81, 82, 83, 84, 85, 86, 87, 88, 89, 90, 91, 92, 93, 94, 95, 96, 97, 98, 99, 100, 101, 102, 103, 104, 105, 106, 107, 108, 109, 110, 111, 112, 113, 114, 115, 116, 117, 118, 119, 120, 121, 122, 123, 124, 125, 126, 127, 128, 129, 130, 131, 132, 133, 134, 135, 136, 137, 138, 139, 140, 141, 142, 143, 144, 145, 146, 147, 148, 149, 150, 151, 152, 153, 154, 155, 156, 157, 158, 159, 160, 161, 162, 163, 164],
      "AcquisitionTime": ["111528.937500", "111530.937500", "111532.937500", "111534.937500", "111536.937500", "111538.937500", "111540.937500", "111542.937500", "111544.937500", "111546.937500", "111548.937500", "111550.937500", "111552.937500", "111554.937500", "111556.937500", "111558.937500", "111600.937500", "111602.937500", "111604.937500", "111606.937500", "111608.937500", "111610.937500", "111612.937500", "111614.937500", "111616.937500", "111618.937500", "111620.937500", "111622.937500", "111624.937500", "111626.937500", "111628.937500", "111630.937500", "111632.937500", "111634.937500", "111636.937500", "111638.937500", "111640.937500", "111642.937500", "111644.937500", "111646.937500", "111648.937500", "111650.937500", "111652.937500", "111654.937500", "111656.937500", "111658.937500", "111700.937500", "111702.937500", "111704.937500", "111706.937500", "111708.937500", "111710.937500", "111712.937500", "111714.937500", "111716.937500", "111718.937500", "111720.937500", "111722.937500", "111724.937500", "111726.937500", "111728.937500", "111730.937500", "111732.937500", "111734.937500", "111736.937500", "111738.937500", "111740.937500", "111742.937500", "111744.937500", "111746.937500", "111748.937500", "111750.937500", "111752.937500", "111754.937500", "111756.937500", "111758.937500", "111800.937500", "111802.937500", "111804.937500", "111806.937500", "111808.937500", "111810.937500", "111812.937500", "111814.937500", "111816.937500", "111818.937500", "111820.937500", "111822.937500", "111824.937500", "111826.937500", "111828.937500", "111830.937500", "111832.937500", "111834.937500", "111836.937500", "111838.937500", "111840.937500", "111842.937500", "111844.937500", "111846.937500", "111848.937500", "111850.937500", "111852.937500", "111854.937500", "111856.937500", "111858.937500", "111900.937500", "111902.937500", "111904.937500", "111906.937500", "111908.937500", "111910.937500", "111912.937500", "111914.937500", "111916.937500", "111918.937500", "111920.937500", "111922.937500", "111924.937500", "111926.937500", "111928.937500", "111930.937500", "111932.937500", "111934.937500", "111936.937500", "111938.937500", "111940.937500", "111942.937500", "111944.937500", "111946.937500", "111948.937500", "111950.937500", "111952.937500", "111954.937500", "111956.937500", "111958.937500", "112000.937500", "112002.937500", "112004.937500", "112006.937500", "112008.937500", "112010.937500", "112012.937500", "112014.937500", "112016.937500", "112018.937500", "112020.937500", "112022.937500", "112024.937500", "112026.940000", "112028.940000", "112030.940000", "112032.940000", "112034.940000", "112036.940000", "112038.940000", "112040.940000", "112042.940000", "112044.940000", "112046.940000", "112048.940000", "112050.940000", "112052.940000", "112054.940000"],
      "ContentTime": ["111540.863000", "111541.857000", "111541.861000", "111542.856000", "111542.860000", "111543.856000", "111544.857000", "111545.856000", "111547.857000", "111549.857000", "111551.856000", "111553.856000", "111555.856000", "111557.857000", "111559.856000", "111601.857000", "111603.856000", "111605.855000", "111607.854000", "111609.854000", "111611.856000", "111613.856000", "111615.856000", "111617.857000", "111619.857000", "111621.857000", "111623.856000", "111625.856000", "111627.856000", "111629.856000", "111631.857000", "111633.856000", "111635.856000", "111637.855000", "111639.857000", "111641.855000", "111643.854000", "111645.856000", "111647.855000", "111649.857000", "111651.861000", "111653.859000", "111655.858000", "111657.857000", "111659.857000", "111701.856000", "111703.856000", "111705.857000", "111707.857000", "111709.857000", "111711.857000", "111713.856000", "111715.856000", "111717.856000", "111719.856000", "111721.857000", "111723.857000", "111725.857000", "111727.857000", "111729.857000", "111731.857000", "111733.856000", "111735.856000", "111737.856000", "111739.857000", "111741.857000", "111743.857000", "111745.857000", "111747.857000", "111749.857000", "111751.856000", "111753.856000", "111755.854000", "111757.857000", "111759.857000", "111801.857000", "111803.857000", "111805.857000", "111807.857000", "111809.856000", "111811.856000", "111813.854000", "111815.857000", "111817.857000", "111819.857000", "111821.857000", "111823.857000", "111825.856000", "111827.856000", "111829.856000", "111831.856000", "111833.858000", "111835.857000", "111837.857000", "111839.857000", "111841.857000", "111843.856000", "111845.856000", "111847.857000", "111849.857000", "111851.857000", "111853.858000", "111855.857000", "111857.857000", "111859.857000", "111901.856000", "111903.854000", "111905.856000", "111907.857000", "111909.857000", "111911.857000", "111913.857000", "111915.857000", "111917.857000", "111919.856000", "111921.856000", "111923.856000", "111925.856000", "111927.857000", "111929.857000", "111931.856000", "111933.857000", "111935.857000", "111937.856000", "111939.856000", "111941.857000", "111943.857000", "111945.857000", "111947.857000", "111949.857000", "111951.857000", "111953.856000", "111955.856000", "111957.856000", "111959.858000", "112001.857000", "112003.858000", "112005.857000", "112007.857000", "112009.857000", "112011.856000", "112013.857000", "112015.856000", "112017.858000", "112019.857000", "112021.857000", "112023.857000", "112025.857000", "112027.857000", "112029.855000", "112031.855000", "112033.856000", "112035.856000", "112037.857000", "112039.857000", "112041.858000", "112043.858000", "112045.856000", "112047.855000", "112049.856000", "112051.857000", "112053.857000", "112055.856000", "112057.664000"],
      "InstanceCreationTime": ["111540.863000", "111541.857000", "111541.861000", "111542.856000", "111542.860000", "111543.856000", "111544.857000", "111545.856000", "111547.857000", "111549.857000", "111551.856000", "111553.856000", "111555.856000", "111557.857000", "111559.856000", "111601.857000", "111603.856000", "111605.855000", "111607.854000", "111609.854000", "111611.856000", "111613.856000", "111615.856000", "111617.857000", "111619.857000", "111621.857000", "111623.856000", "111625.856000", "111627.856000", "111629.856000", "111631.857000", "111633.856000", "111635.856000", "111637.855000", "111639.857000", "111641.855000", "111643.854000", "111645.856000", "111647.855000", "111649.857000", "111651.861000", "111653.859000", "111655.858000", "111657.857000", "111659.857000", "111701.856000", "111703.856000", "111705.857000", "111707.857000", "111709.857000", "111711.857000", "111713.856000", "111715.856000", "111717.856000", "111719.856000", "111721.857000", "111723.857000", "111725.857000", "111727.857000", "111729.857000", "111731.857000", "111733.856000", "111735.856000", "111737.856000", "111739.857000", "111741.857000", "111743.857000", "111745.857000", "111747.857000", "111749.857000", "111751.856000", "111753.856000", "111755.854000", "111757.857000", "111759.857000", "111801.857000", "111803.857000", "111805.857000", "111807.857000", "111809.856000", "111811.856000", "111813.854000", "111815.857000", "111817.857000", "111819.857000", "111821.857000", "111823.857000", "111825.856000", "111827.856000", "111829.856000", "111831.856000", "111833.858000", "111835.857000", "111837.857000", "111839.857000", "111841.857000", "111843.856000", "111845.856000", "111847.857000", "111849.857000", "111851.857000", "111853.858000", "111855.857000", "111857.857000", "111859.857000", "111901.856000", "111903.854000", "111905.856000", "111907.857000", "111909.857000", "111911.857000", "111913.857000", "111915.857000", "111917.857000", "111919.856000", "111921.856000", "111923.856000", "111925.856000", "111927.857000", "111929.857000", "111931.856000", "111933.857000", "111935.857000", "111937.856000", "111939.856000", "111941.857000", "111943.857000", "111945.857000", "111947.857000", "111949.857000", "111951.857000", "111953.856000", "111955.856000", "111957.856000", "111959.858000", "112001.857000", "112003.858000", "112005.857000", "112007.857000", "112009.857000", "112011.856000", "112013.857000", "112015.856000", "112017.858000", "112019.857000", "112021.857000", "112023.857000", "112025.857000", "112027.857000", "112029.855000", "112031.855000", "112033.856000", "112035.856000", "112037.857000", "112039.857000", "112041.858000", "112043.858000", "112045.856000", "112047.855000", "112049.856000", "112051.857000", "112053.857000", "112055.856000", "112057.664000"],
      "InstanceNumber": [1, 2, 3, 4, 5, 6, 7, 8, 9, 10, 11, 12, 13, 14, 15, 16, 17, 18, 19, 20, 21, 22, 23, 24, 25, 26, 27, 28, 29, 30, 31, 32, 33, 34, 35, 36, 37, 38, 39, 40, 41, 42, 43, 44, 45, 46, 47, 48, 49, 50, 51, 52, 53, 54, 55, 56, 57, 58, 59, 60, 61, 62, 63, 64, 65, 66, 67, 68, 69, 70, 71, 72, 73, 74, 75, 76, 77, 78, 79, 80, 81, 82, 83, 84, 85, 86, 87, 88, 89, 90, 91, 92, 93, 94, 95, 96, 97, 98, 99, 100, 101, 102, 103, 104, 105, 106, 107, 108, 109, 110, 111, 112, 113, 114, 115, 116, 117, 118, 119, 120, 121, 122, 123, 124, 125, 126, 127, 128, 129, 130, 131, 132, 133, 134, 135, 136, 137, 138, 139, 140, 141, 142, 143, 144, 145, 146, 147, 148, 149, 150, 151, 152, 153, 154, 155, 156, 157, 158, 159, 160, 161, 162, 163, 164],
      "WindowCenter": [18441.0, 18401.0, 18384.0, 18376.0, 18362.0, 18364.0, 18376.0, 18362.0, 18366.0, 18344.0, 18347.0, 18319.0, 18284.0, 18284.0, 18271.0, 18287.0, 18289.0, 18286.0, 18302.0, 18339.0, 18322.0, 18311.0, 18260.0, 18254.0, 18251.0, 18275.0, 18309.0, 18329.0, 18353.0, 18343.0, 18340.0, 18303.0, 18297.0, 18286.0, 18295.0, 18295.0, 18313.0, 18316.0, 18308.0, 18335.0, 18321.0, 18331.0, 18330.0, 18335.0, 18314.0, 18337.0, 18362.0, 18390.0, 18367.0, 18329.0, 18299.0, 18280.0, 18281.0, 18283.0, 18251.0, 18229.0, 18203.0, 18199.0, 18199.0, 18213.0, 18245.0, 18261.0, 18258.0, 18280.0, 18282.0, 18296.0, 18311.0, 18343.0, 18339.0, 18334.0, 18333.0, 18326.0, 18350.0, 18344.0, 18334.0, 18328.0, 18333.0, 18334.0, 18326.0, 18317.0, 18308.0, 18300.0, 18307.0, 18301.0, 18295.0, 18280.0, 18308.0, 18314.0, 18312.0, 18283.0, 18293.0, 18325.0, 18284.0, 18259.0, 18197.0, 18155.0, 18158.0, 18166.0, 18209.0, 18238.0, 18274.0, 18294.0, 18284.0, 18292.0, 18286.0, 18294.0, 18300.0, 18299.0, 18314.0, 18311.0, 18316.0, 18339.0, 18322.0, 18301.0, 18282.0, 18261.0, 18288.0, 18310.0, 18307.0, 18302.0, 18266.0, 18280.0, 18282.0, 18307.0, 18286.0, 18292.0, 18287.0, 18276.0, 18300.0, 18272.0, 18261.0, 18310.0, 18272.0, 18236.0, 18207.0, 18220.0, 18227.0, 18240.0, 18278.0, 18290.0, 18302.0, 18283.0, 18242.0, 18231.0, 18249.0, 18240.0, 18249.0, 18279.0, 18301.0, 18310.0, 18305.0, 18292.0, 18270.0, 18264.0, 18274.0, 18266.0, 18259.0, 18272.0, 18256.0, 18248.0, 18239.0, 18221.0, 18221.0, 18258.0],
      "WindowWidth": [47724.0, 47595.0, 47573.0, 47543.0, 47496.0, 47499.0, 47518.0, 47522.0, 47450.0, 47473.0, 47450.0, 47392.0, 47278.0, 47241.0, 47257.0, 47245.0, 47260.0, 47281.0, 47320.0, 47396.0, 47383.0, 47290.0, 47203.0, 47097.0, 47146.0, 47226.0, 47338.0, 47391.0, 47407.0, 47400.0, 47360.0, 47333.0, 47303.0, 47272.0, 47266.0, 47329.0, 47355.0, 47356.0, 47376.0, 47380.0, 47359.0, 47391.0, 47380.0, 47359.0, 47391.0, 47383.0, 47479.0, 47510.0, 47482.0, 47365.0, 47305.0, 47228.0, 47241.0, 47257.0, 47181.0, 47130.0, 47023.0, 46980.0, 46971.0, 47043.0, 47116.0, 47153.0, 47213.0, 47240.0, 47242.0, 47252.0, 47351.0, 47410.0, 47432.0, 47379.0, 47380.0, 47401.0, 47419.0, 47364.0, 47355.0, 47338.0, 47344.0, 47370.0, 47365.0, 47347.0, 47314.0, 47306.0, 47309.0, 47291.0, 47274.0, 47226.0, 47234.0, 47303.0, 47365.0, 47219.0, 47193.0, 47227.0, 47205.0, 47110.0, 46888.0, 46809.0, 46825.0, 46856.0, 46939.0, 47047.0, 47136.0, 47238.0, 47219.0, 47224.0, 47208.0, 47228.0, 47232.0, 47282.0, 47317.0, 47289.0, 47306.0, 47334.0, 47272.0, 47233.0, 47193.0, 47126.0, 47198.0, 47240.0, 47250.0, 47245.0, 47194.0, 47167.0, 47196.0, 47213.0, 47184.0, 47213.0, 47207.0, 47185.0, 47207.0, 47184.0, 47140.0, 47213.0, 47121.0, 47017.0, 46973.0, 46958.0, 46976.0, 47059.0, 47139.0, 47208.0, 47241.0, 47189.0, 47095.0, 47078.0, 47142.0, 47071.0, 47058.0, 47240.0, 47256.0, 47225.0, 47224.0, 47151.0, 47109.0, 47079.0, 47124.0, 47131.0, 47100.0, 47086.0, 47110.0, 47103.0, 47083.0, 47018.0, 47032.0, 47085.0]
    },
    "slices": {}
  }
}