{
  "AcquisitionMatrixPE": 116,
  "AcquisitionNumber": 1,
  "AcquisitionTime": "11:03:45.045000",
  "BandwidthPerPixelPhaseEncode": 18.539,
  "BaseResolution": 116,
  "BodyPartExamined": "HEAD",
  "ConsistencyInfo": "N4_VD13D_LATEST_20130810",
  "ConversionSoftware": "dcm2niix",
  "ConversionSoftwareVersion": "v1.0.20190410  (JP2:OpenJPEG) (JP-LS:CharLS) GCC5.5.0",
  "DerivedVendorReportedEchoSpacing": 0.000930006,
  "DeviceSerialNumber": "66014",
  "DwellTime": 3e-06,
  "EchoTime": 0.03,
  "EchoTrainLength": 50,
  "EffectiveEchoSpacing": 0.000465003,
  "FlipAngle": 81,
  "ImageComments": "Unaliased_MB3_PE4",
  "ImageOrientationPatientDICOM": [0.997002, 0.0680869, 0.0367537, -0.0679688, 0.997678, -0.00445546],
  "ImageType": [
    "ORIGINAL",
    "PRIMARY",
    "M",
    "MB",
    "ND",
    "MOSAIC"
],
  "ImagingFrequency": 123.261,
  "InPlanePhaseEncodingDirectionDICOM": "COL",
  "InstitutionAddress": "Yiheyuan_Road_5_Beijing_Haidian_CN_100871",
  "InstitutionName": "Peking_Univeristy",
  "InstitutionalDepartmentName": "Department",
  "MRAcquisitionType": "2D",
  "MagneticFieldStrength": 3,
  "Manufacturer": "Siemens",
  "ManufacturersModelName": "Prisma",
  "Modality": "MR",
  "MultibandAccelerationFactor": 3,
  "ParallelReductionFactorInPlane": 2,
  "PartialFourier": 0.875,
  "PatientPosition": "HFS",
  "PercentPhaseFOV": 100,
  "PhaseEncodingDirection": "j-",
  "PhaseEncodingSteps": 101,
  "PhaseResolution": 1,
  "PixelBandwidth": 1435,
  "ProcedureStepDescription": "Research_Projects_64CH",
  "ProtocolName": "mbep2d_bold_MB3_test3",
  "PulseSequenceDetails": "%CustomerSeq%_cmrr_mbep2d_bold",
  "ReceiveCoilActiveElements": "HC1-6",
  "ReceiveCoilName": "HeadNeck_64",
  "ReconMatrixPE": 116,
  "RefLinesPE": 44,
  "RepetitionTime": 2,
  "SAR": 0.0643165,
  "ScanOptions": "PFP_FS",
  "ScanningSequence": "EP",
  "SequenceName": "epfid2d1_116",
  "SequenceVariant": "SK_SS",
  "SeriesDescription": "mbep2d_bold_MB3_test3",
  "SeriesNumber": 8,
  "ShimSetting": [-3439, -2106, -1974, 340, 0, -372, -93, -28],
  "SliceThickness": 1.9,
  "SliceTiming": [0, 0.9075, 1.815, 0.7425, 1.65, 0.5775, 1.485, 0.4125, 1.32, 0.2475, 1.155, 0.0825, 0.99, 1.8975, 0.825, 1.7325, 0.66, 1.5675, 0.495, 1.4025, 0.33, 1.2375, 0.165, 1.0725, 0, 0.9075, 1.815, 0.7425, 1.65, 0.5775, 1.485, 0.4125, 1.32, 0.2475, 1.155, 0.0825, 0.99, 1.8975, 0.825, 1.7325, 0.66, 1.5675, 0.495, 1.4025, 0.33, 1.2375, 0.165, 1.0725, 0, 0.9075, 1.815, 0.7425, 1.65, 0.5775, 1.485, 0.4125, 1.32, 0.2475, 1.155, 0.0825, 0.99, 1.8975, 0.825, 1.7325, 0.66, 1.5675, 0.495, 1.4025, 0.33, 1.2375, 0.165, 1.0725],
  "SoftwareVersions": "syngo_MR_D13D",
  "SpacingBetweenSlices": 1.9,
  "StationName": "AWP66014",
  "TaskName": "retrieval",
  "TotalReadoutTime": 0.0534753,
  "TxRefAmp": 230.968,
  "WipMemBlock": "c715b67d-184d-4f3b-b71f-6244dbca18ff||Sequence: vd13d/master r/0735857; Nov 19 2014 09:21:40 by eja",
  "dcmmeta_affine": [
    [-1.8908661603927612, -0.1289062798023224, 0.07024622708559036, 116.69873809814453],
    [-0.1291303187608719, 1.8921469449996948, -0.003693593433126807, -87.83875274658203],
    [0.0697053000330925, 0.008450005203485489, 1.8986973762512207, -69.85041046142578],
    [0.0, 0.0, 0.0, 1.0]
],
  "dcmmeta_reorient_transform": [
    [0.0, -1.0, 0.0, 115.0],
    [1.0, 0.0, 0.0, 0.0],
    [0.0, 0.0, 1.0, 0.0],
    [0.0, 0.0, 0.0, 1.0]
],
  "dcmmeta_shape": [116, 116, 72, 289],
  "dcmmeta_slice_dim": 2,
  "dcmmeta_version": 0.6,
  "global": {
    "const": {
      "AcquisitionMatrix": [116, 0, 0, 116],
      "AngioFlag": "N",
      "BitsAllocated": 16,
      "BitsStored": 16,
      "BodyPartExamined": "HEAD",
      "Columns": 1044,
      "EchoNumbers": 1,
      "EchoTime": 30.0,
      "EchoTrainLength": 50,
      "FlipAngle": 81.0,
      "HighBit": 15,
      "ImageOrientationPatient": [0.9970021765758, 0.0680868947649, 0.03675370273046, -0.0679687668214, 0.99767750081799, -0.0044554571431],
      "ImagePositionPatient": [-919.42391945387, -1067.630817978, -97.301114641256],
      "ImageType": [
        "ORIGINAL",
        "PRIMARY",
        "M",
        "MB",
        "ND",
        "MOSAIC"
],
      "ImagedNucleus": "1H",
      "ImagingFrequency": 123.260544,
      "InPlanePhaseEncodingDirection": "COL",
      "LargestImagePixelValue": 65535,
      "MRAcquisitionType": "2D",
      "MagneticFieldStrength": 3.0,
      "Manufacturer": "SIEMENS",
      "ManufacturerModelName": "Prisma",
      "Modality": "MR",
      "NumberOfAverages": 1.0,
      "NumberOfPhaseEncodingSteps": 101,
      "PercentPhaseFieldOfView": 100.0,
      "PercentSampling": 100.0,
      "PerformedProcedureStepStartTime": "102535.668000",
      "PhotometricInterpretation": "MONOCHROME2",
      "PixelBandwidth": 1435.0,
      "PixelRepresentation": 0,
      "PixelSpacing": [1.8965517282486, 1.8965517282486],
      "ProtocolName": "mbep2d_bold_MB3_test3",
      "RepetitionTime": 2000.0,
      "Rows": 1044,
      "SAR": 0.06431646878446,
      "SamplesPerPixel": 1,
      "ScanOptions": [
        "PFP",
        "FS"
],
      "ScanningSequence": "EP",
      "SequenceName": "epfid2d1_116",
      "SequenceVariant": [
        "SK",
        "SS"
],
      "SeriesDescription": "mbep2d_bold_MB3_test3",
      "SeriesNumber": 8,
      "SeriesTime": "110356.868000",
      "SliceLocation": -65.317212040495,
      "SliceThickness": 1.8999999761581,
      "SmallestImagePixelValue": 0,
      "SoftwareVersions": "syngo MR D13D",
      "SpacingBetweenSlices": 1.8999999274192,
      "SpecificCharacterSet": "ISO_IR 100",
      "StudyID": "1",
      "StudyTime": "102535.620000",
      "TimeOfLastCalibration": ["123723.000000", "123723.000000"],
      "TransmitCoilName": "Body",
      "VariableFlipAngleFlag": "N",
      "WindowCenterWidthExplanation": "Algo1",
      "dBdt": 0.0},
    "slices": {}
  },
  "time": {
    "samples": {
      "AcquisitionNumber": [1, 2, 3, 4, 5, 6, 7, 8, 9, 10, 11, 12, 13, 14, 15, 16, 17, 18, 19, 20, 21, 22, 23, 24, 25, 26, 27, 28, 29, 30, 31, 32, 33, 34, 35, 36, 37, 38, 39, 40, 41, 42, 43, 44, 45, 46, 47, 48, 49, 50, 51, 52, 53, 54, 55, 56, 57, 58, 59, 60, 61, 62, 63, 64, 65, 66, 67, 68, 69, 70, 71, 72, 73, 74, 75, 76, 77, 78, 79, 80, 81, 82, 83, 84, 85, 86, 87, 88, 89, 90, 91, 92, 93, 94, 95, 96, 97, 98, 99, 100, 101, 102, 103, 104, 105, 106, 107, 108, 109, 110, 111, 112, 113, 114, 115, 116, 117, 118, 119, 120, 121, 122, 123, 124, 125, 126, 127, 128, 129, 130, 131, 132, 133, 134, 135, 136, 137, 138, 139, 140, 141, 142, 143, 144, 145, 146, 147, 148, 149, 150, 151, 152, 153, 154, 155, 156, 157, 158, 159, 160, 161, 162, 163, 164, 165, 166, 167, 168, 169, 170, 171, 172, 173, 174, 175, 176, 177, 178, 179, 180, 181, 182, 183, 184, 185, 186, 187, 188, 189, 190, 191, 192, 193, 194, 195, 196, 197, 198, 199, 200, 201, 202, 203, 204, 205, 206, 207, 208, 209, 210, 211, 212, 213, 214, 215, 216, 217, 218, 219, 220, 221, 222, 223, 224, 225, 226, 227, 228, 229, 230, 231, 232, 233, 234, 235, 236, 237, 238, 239, 240, 241, 242, 243, 244, 245, 246, 247, 248, 249, 250, 251, 252, 253, 254, 255, 256, 257, 258, 259, 260, 261, 262, 263, 264, 265, 266, 267, 268, 269, 270, 271, 272, 273, 274, 275, 276, 277, 278, 279, 280, 281, 282, 283, 284, 285, 286, 287, 288, 289],
      "AcquisitionTime": ["110345.045000", "110347.045000", "110349.045000", "110351.045000", "110353.045000", "110355.045000", "110357.045000", "110359.045000", "110401.045000", "110403.045000", "110405.045000", "110407.045000", "110409.045000", "110411.045000", "110413.045000", "110415.045000", "110417.045000", "110419.045000", "110421.045000", "110423.045000", "110425.045000", "110427.045000", "110429.045000", "110431.045000", "110433.045000", "110435.045000", "110437.045000", "110439.045000", "110441.045000", "110443.045000", "110445.045000", "110447.045000", "110449.045000", "110451.045000", "110453.045000", "110455.045000", "110457.045000", "110459.045000", "110501.045000", "110503.045000", "110505.045000", "110507.045000", "110509.045000", "110511.045000", "110513.045000", "110515.045000", "110517.045000", "110519.045000", "110521.045000", "110523.045000", "110525.045000", "110527.045000", "110529.045000", "110531.045000", "110533.045000", "110535.045000", "110537.045000", "110539.045000", "110541.045000", "110543.045000", "110545.045000", "110547.045000", "110549.045000", "110551.045000", "110553.045000", "110555.045000", "110557.045000", "110559.045000", "110601.045000", "110603.045000", "110605.045000", "110607.045000", "110609.045000", "110611.045000", "110613.047500", "110615.047500", "110617.047500", "110619.047500", "110621.047500", "110623.047500", "110625.047500", "110627.047500", "110629.047500", "110631.047500", "110633.047500", "110635.047500", "110637.047500", "110639.047500", "110641.047500", "110643.047500", "110645.047500", "110647.047500", "110649.047500", "110651.047500", "110653.047500", "110655.047500", "110657.047500", "110659.047500", "110701.047500", "110703.047500", "110705.047500", "110707.047500", "110709.047500", "110711.047500", "110713.047500", "110715.047500", "110717.047500", "110719.047500", "110721.047500", "110723.047500", "110725.047500", "110727.047500", "110729.047500", "110731.047500", "110733.047500", "110735.047500", "110737.047500", "110739.047500", "110741.047500", "110743.047500", "110745.047500", "110747.047500", "110749.047500", "110751.047500", "110753.047500", "110755.047500", "110757.047500", "110759.047500", "110801.047500", "110803.047500", "110805.047500", "110807.047500", "110809.047500", "110811.047500", "110813.047500", "110815.047500", "110817.047500", "110819.047500", "110821.047500", "110823.047500", "110825.047500", "110827.047500", "110829.047500", "110831.047500", "110833.047500", "110835.047500", "110837.047500", "110839.047500", "110841.047500", "110843.047500", "110845.047500", "110847.047500", "110849.047500", "110851.047500", "110853.047500", "110855.047500", "110857.047500", "110859.047500", "110901.047500", "110903.047500", "110905.047500", "110907.047500", "110909.047500", "110911.047500", "110913.047500", "110915.047500", "110917.047500", "110919.047500", "110921.047500", "110923.047500", "110925.047500", "110927.047500", "110929.047500", "110931.047500", "110933.047500", "110935.047500", "110937.047500", "110939.047500", "110941.047500", "110943.047500", "110945.047500", "110947.047500", "110949.047500", "110951.047500", "110953.047500", "110955.047500", "110957.047500", "110959.047500", "111001.047500", "111003.047500", "111005.047500", "111007.047500", "111009.047500", "111011.047500", "111013.047500", "111015.047500", "111017.047500", "111019.047500", "111021.047500", "111023.047500", "111025.047500", "111027.047500", "111029.047500", "111031.047500", "111033.047500", "111035.047500", "111037.047500", "111039.047500", "111041.047500", "111043.047500", "111045.047500", "111047.047500", "111049.047500", "111051.047500", "111053.047500", "111055.047500", "111057.047500", "111059.047500", "111101.047500", "111103.047500", "111105.047500", "111107.047500", "111109.047500", "111111.047500", "111113.047500", "111115.047500", "111117.047500", "111119.047500", "111121.047500", "111123.047500", "111125.047500", "111127.047500", "111129.047500", "111131.047500", "111133.047500", "111135.047500", "111137.047500", "111139.047500", "111141.047500", "111143.047500", "111145.047500", "111147.047500", "111149.047500", "111151.047500", "111153.047500", "111155.047500", "111157.047500", "111159.047500", "111201.047500", "111203.047500", "111205.047500", "111207.047500", "111209.047500", "111211.047500", "111213.047500", "111215.047500", "111217.047500", "111219.047500", "111221.047500", "111223.047500", "111225.047500", "111227.047500", "111229.047500", "111231.047500", "111233.047500", "111235.047500", "111237.047500", "111239.047500", "111241.047500", "111243.047500", "111245.047500", "111247.047500", "111249.047500", "111251.047500", "111253.047500", "111255.047500", "111257.047500", "111259.047500", "111301.047500", "111303.047500", "111305.047500", "111307.047500", "111309.047500", "111311.047500", "111313.047500", "111315.047500", "111317.047500", "111319.047500", "111321.047500"],
      "ContentTime": ["110356.874000", "110357.867000", "110357.871000", "110358.867000", "110358.871000", "110359.867000", "110400.867000", "110401.867000", "110403.867000", "110405.868000", "110407.867000", "110409.865000", "110411.866000", "110413.866000", "110415.868000", "110417.868000", "110419.868000", "110421.868000", "110423.867000", "110425.865000", "110427.867000", "110429.866000", "110431.867000", "110433.869000", "110435.868000", "110437.868000", "110439.868000", "110441.867000", "110443.867000", "110445.867000", "110447.867000", "110449.868000", "110451.868000", "110453.868000", "110455.868000", "110457.867000", "110459.867000", "110501.867000", "110503.865000", "110505.866000", "110507.867000", "110509.868000", "110511.868000", "110513.868000", "110515.868000", "110517.867000", "110519.867000", "110521.867000", "110523.886000", "110525.867000", "110527.867000", "110529.867000", "110531.867000", "110533.867000", "110535.866000", "110537.872000", "110539.867000", "110541.867000", "110543.868000", "110545.868000", "110547.867000", "110549.868000", "110551.867000", "110553.866000", "110555.866000", "110557.866000", "110559.868000", "110601.868000", "110603.868000", "110605.868000", "110607.867000", "110609.867000", "110611.867000", "110613.867000", "110615.867000", "110617.868000", "110619.868000", "110621.867000", "110623.868000", "110625.868000", "110627.867000", "110629.868000", "110631.867000", "110633.866000", "110635.868000", "110637.867000", "110639.867000", "110641.868000", "110643.867000", "110645.865000", "110647.867000", "110649.867000", "110651.866000", "110653.868000", "110655.868000", "110657.868000", "110659.869000", "110701.867000", "110703.867000", "110705.868000", "110707.867000", "110709.868000", "110711.868000", "110713.869000", "110715.868000", "110717.868000", "110719.867000", "110721.867000", "110723.867000", "110725.866000", "110727.868000", "110729.869000", "110731.868000", "110733.868000", "110735.868000", "110737.867000", "110739.867000", "110741.867000", "110743.865000", "110745.868000", "110747.868000", "110749.868000", "110751.868000", "110753.866000", "110755.866000", "110757.866000", "110759.867000", "110801.867000", "110803.868000", "110805.867000", "110807.867000", "110809.869000", "110811.867000", "110813.867000", "110815.867000", "110817.868000", "110819.868000", "110821.868000", "110823.868000", "110825.868000", "110827.868000", "110829.867000", "110831.867000", "110833.867000", "110835.867000", "110837.868000", "110839.867000", "110841.868000", "110843.868000", "110845.868000", "110847.867000", "110849.866000", "110851.867000", "110853.867000", "110855.868000", "110857.868000", "110859.867000", "110901.868000", "110903.866000", "110905.867000", "110907.868000", "110909.867000", "110911.868000", "110913.868000", "110915.869000", "110917.868000", "110919.868000", "110921.867000", "110923.867000", "110925.867000", "110927.867000", "110929.868000", "110931.868000", "110933.866000", "110935.867000", "110937.868000", "110939.866000", "110941.866000", "110943.867000", "110945.867000", "110947.868000", "110949.868000", "110951.868000", "110953.867000", "110955.868000", "110957.867000", "110959.866000", "111001.867000", "111003.865000", "111005.868000", "111007.867000", "111009.872000", "111011.868000", "111013.865000", "111015.865000", "111017.866000", "111019.867000", "111021.867000", "111023.875000", "111025.868000", "111027.868000", "111029.868000", "111031.867000", "111033.866000", "111035.867000", "111037.867000", "111039.868000", "111041.868000", "111043.867000", "111045.867000", "111047.869000", "111049.867000", "111051.867000", "111053.866000", "111055.867000", "111057.867000", "111059.867000", "111101.867000", "111103.866000", "111105.866000", "111107.865000", "111109.866000", "111111.867000", "111113.868000", "111115.868000", "111117.867000", "111119.868000", "111121.867000", "111123.865000", "111125.867000", "111127.865000", "111129.867000", "111131.867000", "111133.867000", "111135.867000", "111137.867000", "111139.868000", "111141.866000", "111143.867000", "111145.867000", "111147.865000", "111149.866000", "111151.866000", "111153.866000", "111155.866000", "111157.868000", "111159.867000", "111201.866000", "111203.866000", "111205.865000", "111207.868000", "111209.867000", "111211.868000", "111213.867000", "111215.867000", "111217.866000", "111219.866000", "111221.866000", "111223.867000", "111225.867000", "111227.867000", "111229.867000", "111231.868000", "111233.867000", "111235.867000", "111237.865000", "111239.866000", "111241.867000", "111243.867000", "111245.868000", "111247.867000", "111249.868000", "111251.866000", "111253.867000", "111255.868000", "111257.867000", "111259.867000", "111301.867000", "111303.868000", "111305.867000", "111307.866000", "111309.865000", "111311.867000", "111313.867000", "111315.867000", "111317.868000", "111319.868000", "111321.868000", "111323.777000"],
      "InstanceCreationTime": ["110356.874000", "110357.867000", "110357.871000", "110358.867000", "110358.871000", "110359.867000", "110400.867000", "110401.867000", "110403.867000", "110405.868000", "110407.867000", "110409.865000", "110411.866000", "110413.866000", "110415.868000", "110417.868000", "110419.868000", "110421.868000", "110423.867000", "110425.865000", "110427.867000", "110429.866000", "110431.867000", "110433.869000", "110435.868000", "110437.868000", "110439.868000", "110441.867000", "110443.867000", "110445.867000", "110447.867000", "110449.868000", "110451.868000", "110453.868000", "110455.868000", "110457.867000", "110459.867000", "110501.867000", "110503.865000", "110505.866000", "110507.867000", "110509.868000", "110511.868000", "110513.868000", "110515.868000", "110517.867000", "110519.867000", "110521.867000", "110523.886000", "110525.867000", "110527.867000", "110529.867000", "110531.867000", "110533.867000", "110535.866000", "110537.872000", "110539.867000", "110541.867000", "110543.868000", "110545.868000", "110547.867000", "110549.868000", "110551.867000", "110553.866000", "110555.866000", "110557.866000", "110559.868000", "110601.868000", "110603.868000", "110605.868000", "110607.867000", "110609.867000", "110611.867000", "110613.867000", "110615.867000", "110617.868000", "110619.868000", "110621.867000", "110623.868000", "110625.868000", "110627.867000", "110629.868000", "110631.867000", "110633.866000", "110635.868000", "110637.867000", "110639.867000", "110641.868000", "110643.867000", "110645.865000", "110647.867000", "110649.867000", "110651.866000", "110653.868000", "110655.868000", "110657.868000", "110659.869000", "110701.867000", "110703.867000", "110705.868000", "110707.867000", "110709.868000", "110711.868000", "110713.869000", "110715.868000", "110717.868000", "110719.867000", "110721.867000", "110723.867000", "110725.866000", "110727.868000", "110729.869000", "110731.868000", "110733.868000", "110735.868000", "110737.867000", "110739.867000", "110741.867000", "110743.865000", "110745.868000", "110747.868000", "110749.868000", "110751.868000", "110753.866000", "110755.866000", "110757.866000", "110759.867000", "110801.867000", "110803.868000", "110805.867000", "110807.867000", "110809.869000", "110811.867000", "110813.867000", "110815.867000", "110817.868000", "110819.868000", "110821.868000", "110823.868000", "110825.868000", "110827.868000", "110829.867000", "110831.867000", "110833.867000", "110835.867000", "110837.868000", "110839.867000", "110841.868000", "110843.868000", "110845.868000", "110847.867000", "110849.866000", "110851.867000", "110853.867000", "110855.868000", "110857.868000", "110859.867000", "110901.868000", "110903.866000", "110905.867000", "110907.868000", "110909.867000", "110911.868000", "110913.868000", "110915.869000", "110917.868000", "110919.868000", "110921.867000", "110923.867000", "110925.867000", "110927.867000", "110929.868000", "110931.868000", "110933.866000", "110935.867000", "110937.868000", "110939.866000", "110941.866000", "110943.867000", "110945.867000", "110947.868000", "110949.868000", "110951.868000", "110953.867000", "110955.868000", "110957.867000", "110959.866000", "111001.867000", "111003.865000", "111005.868000", "111007.867000", "111009.872000", "111011.868000", "111013.865000", "111015.865000", "111017.866000", "111019.867000", "111021.867000", "111023.875000", "111025.868000", "111027.868000", "111029.868000", "111031.867000", "111033.866000", "111035.867000", "111037.867000", "111039.868000", "111041.868000", "111043.867000", "111045.867000", "111047.869000", "111049.867000", "111051.867000", "111053.866000", "111055.867000", "111057.867000", "111059.867000", "111101.867000", "111103.866000", "111105.866000", "111107.865000", "111109.866000", "111111.867000", "111113.868000", "111115.868000", "111117.867000", "111119.868000", "111121.867000", "111123.865000", "111125.867000", "111127.865000", "111129.867000", "111131.867000", "111133.867000", "111135.867000", "111137.867000", "111139.868000", "111141.866000", "111143.867000", "111145.867000", "111147.865000", "111149.866000", "111151.866000", "111153.866000", "111155.866000", "111157.868000", "111159.867000", "111201.866000", "111203.866000", "111205.865000", "111207.868000", "111209.867000", "111211.868000", "111213.867000", "111215.867000", "111217.866000", "111219.866000", "111221.866000", "111223.867000", "111225.867000", "111227.867000", "111229.867000", "111231.868000", "111233.867000", "111235.867000", "111237.865000", "111239.866000", "111241.867000", "111243.867000", "111245.868000", "111247.867000", "111249.868000", "111251.866000", "111253.867000", "111255.868000", "111257.867000", "111259.867000", "111301.867000", "111303.868000", "111305.867000", "111307.866000", "111309.865000", "111311.867000", "111313.867000", "111315.867000", "111317.868000", "111319.868000", "111321.868000", "111323.777000"],
      "InstanceNumber": [1, 2, 3, 4, 5, 6, 7, 8, 9, 10, 11, 12, 13, 14, 15, 16, 17, 18, 19, 20, 21, 22, 23, 24, 25, 26, 27, 28, 29, 30, 31, 32, 33, 34, 35, 36, 37, 38, 39, 40, 41, 42, 43, 44, 45, 46, 47, 48, 49, 50, 51, 52, 53, 54, 55, 56, 57, 58, 59, 60, 61, 62, 63, 64, 65, 66, 67, 68, 69, 70, 71, 72, 73, 74, 75, 76, 77, 78, 79, 80, 81, 82, 83, 84, 85, 86, 87, 88, 89, 90, 91, 92, 93, 94, 95, 96, 97, 98, 99, 100, 101, 102, 103, 104, 105, 106, 107, 108, 109, 110, 111, 112, 113, 114, 115, 116, 117, 118, 119, 120, 121, 122, 123, 124, 125, 126, 127, 128, 129, 130, 131, 132, 133, 134, 135, 136, 137, 138, 139, 140, 141, 142, 143, 144, 145, 146, 147, 148, 149, 150, 151, 152, 153, 154, 155, 156, 157, 158, 159, 160, 161, 162, 163, 164, 165, 166, 167, 168, 169, 170, 171, 172, 173, 174, 175, 176, 177, 178, 179, 180, 181, 182, 183, 184, 185, 186, 187, 188, 189, 190, 191, 192, 193, 194, 195, 196, 197, 198, 199, 200, 201, 202, 203, 204, 205, 206, 207, 208, 209, 210, 211, 212, 213, 214, 215, 216, 217, 218, 219, 220, 221, 222, 223, 224, 225, 226, 227, 228, 229, 230, 231, 232, 233, 234, 235, 236, 237, 238, 239, 240, 241, 242, 243, 244, 245, 246, 247, 248, 249, 250, 251, 252, 253, 254, 255, 256, 257, 258, 259, 260, 261, 262, 263, 264, 265, 266, 267, 268, 269, 270, 271, 272, 273, 274, 275, 276, 277, 278, 279, 280, 281, 282, 283, 284, 285, 286, 287, 288, 289],
      "WindowCenter": [18253.0, 18267.0, 18262.0, 18262.0, 18272.0, 18269.0, 18275.0, 18314.0, 18297.0, 18297.0, 18312.0, 18274.0, 18272.0, 18246.0, 18231.0, 18232.0, 18202.0, 18216.0, 18214.0, 18234.0, 18240.0, 18258.0, 18249.0, 18242.0, 18244.0, 18254.0, 18295.0, 18301.0, 18299.0, 18314.0, 18327.0, 18319.0, 18316.0, 18305.0, 18247.0, 18239.0, 18237.0, 18215.0, 18204.0, 18199.0, 18179.0, 18193.0, 18237.0, 18258.0, 18253.0, 18273.0, 18255.0, 18278.0, 18293.0, 18289.0, 18254.0, 18313.0, 18274.0, 18282.0, 18264.0, 18241.0, 18211.0, 18245.0, 18203.0, 18202.0, 18182.0, 18131.0, 18122.0, 18135.0, 18130.0, 18163.0, 18214.0, 18243.0, 18266.0, 18261.0, 18230.0, 18270.0, 18301.0, 18294.0, 18261.0, 18214.0, 18173.0, 18158.0, 18200.0, 18232.0, 18249.0, 18257.0, 18239.0, 18217.0, 18210.0, 18230.0, 18264.0, 18321.0, 18324.0, 18329.0, 18324.0, 18271.0, 18247.0, 18217.0, 18206.0, 18256.0, 18270.0, 18274.0, 18295.0, 18321.0, 18341.0, 18337.0, 18329.0, 18359.0, 18363.0, 18386.0, 18384.0, 18382.0, 18324.0, 18273.0, 18237.0, 18211.0, 18184.0, 18202.0, 18214.0, 18208.0, 18230.0, 18262.0, 18278.0, 18286.0, 18307.0, 18325.0, 18341.0, 18361.0, 18353.0, 18372.0, 18355.0, 18318.0, 18334.0, 18277.0, 18301.0, 18313.0, 18335.0, 18296.0, 18229.0, 18164.0, 18169.0, 18169.0, 18189.0, 18209.0, 18248.0, 18247.0, 18260.0, 18281.0, 18248.0, 18231.0, 18252.0, 18281.0, 18282.0, 18298.0, 18290.0, 18283.0, 18280.0, 18304.0, 18305.0, 18303.0, 18302.0, 18216.0, 18400.0, 18353.0, 18357.0, 18328.0, 18270.0, 18260.0, 18284.0, 18297.0, 18286.0, 18295.0, 18295.0, 18302.0, 18340.0, 18340.0, 18362.0, 18365.0, 18373.0, 18354.0, 18365.0, 18370.0, 18366.0, 18358.0, 18375.0, 18353.0, 18326.0, 18276.0, 18236.0, 18230.0, 18249.0, 18251.0, 18212.0, 18215.0, 18191.0, 18165.0, 18170.0, 18198.0, 18195.0, 18199.0, 18194.0, 18192.0, 18220.0, 18234.0, 18233.0, 18227.0, 18241.0, 18250.0, 18291.0, 18258.0, 18268.0, 18276.0, 18255.0, 18219.0, 18201.0, 18238.0, 18262.0, 18257.0, 18248.0, 18173.0, 18213.0, 18241.0, 18241.0, 18228.0, 18201.0, 18148.0, 18160.0, 18169.0, 18199.0, 18218.0, 18217.0, 18214.0, 18211.0, 18216.0, 18236.0, 18237.0, 18267.0, 18253.0, 18243.0, 18239.0, 18238.0, 18249.0, 18274.0, 18258.0, 18257.0, 18241.0, 18243.0, 18240.0, 18240.0, 18273.0, 18288.0, 18289.0, 18288.0, 18294.0, 18292.0, 18262.0, 18265.0, 18258.0, 18206.0, 18101.0, 18041.0, 18037.0, 18057.0, 18066.0, 18072.0, 18111.0, 18148.0, 18164.0, 18155.0, 18152.0, 18177.0, 18197.0, 18175.0, 18194.0, 18224.0, 18261.0, 18288.0, 18295.0, 18310.0, 18286.0, 18286.0, 18260.0, 18263.0, 18243.0, 18241.0, 18246.0, 18247.0, 18224.0, 18226.0, 18257.0, 18266.0, 18252.0, 18255.0],
      "WindowWidth": [47217.0, 47226.0, 47271.0, 47260.0, 47265.0, 47298.0, 47343.0, 47433.0, 47383.0, 47396.0, 47354.0, 47288.0, 47249.0, 47156.0, 47171.0, 47158.0, 47099.0, 47110.0, 47109.0, 47125.0, 47191.0, 47217.0, 47223.0, 47217.0, 47196.0, 47254.0, 47307.0, 47374.0, 47384.0, 47409.0, 47458.0, 47439.0, 47410.0, 47377.0, 47257.0, 47162.0, 47163.0, 47133.0, 47038.0, 47023.0, 46997.0, 47032.0, 47118.0, 47218.0, 47190.0, 47255.0, 47228.0, 47260.0, 47310.0, 47280.0, 47181.0, 47357.0, 47278.0, 47234.0, 47221.0, 47167.0, 47093.0, 47195.0, 47128.0, 47078.0, 46965.0, 46798.0, 46754.0, 46767.0, 46826.0, 46940.0, 47017.0, 47113.0, 47204.0, 47223.0, 47152.0, 47233.0, 47354.0, 47336.0, 47261.0, 47112.0, 46929.0, 46931.0, 47014.0, 47136.0, 47173.0, 47192.0, 47155.0, 47064.0, 47036.0, 47090.0, 47238.0, 47355.0, 47443.0, 47448.0, 47382.0, 47279.0, 47172.0, 47088.0, 47105.0, 47194.0, 47217.0, 47269.0, 47335.0, 47379.0, 47456.0, 47454.0, 47475.0, 47484.0, 47524.0, 47602.0, 47563.0, 47548.0, 47407.0, 47257.0, 47130.0, 47048.0, 46952.0, 46942.0, 46990.0, 47011.0, 47089.0, 47189.0, 47250.0, 47293.0, 47334.0, 47422.0, 47434.0, 47486.0, 47518.0, 47507.0, 47468.0, 47414.0, 47404.0, 47230.0, 47292.0, 47340.0, 47392.0, 47323.0, 47094.0, 46921.0, 46891.0, 46915.0, 46979.0, 47032.0, 47097.0, 47158.0, 47232.0, 47236.0, 47175.0, 47136.0, 47189.0, 47284.0, 47285.0, 47296.0, 47316.0, 47298.0, 47296.0, 47315.0, 47339.0, 47351.0, 47324.0, 47082.0, 47595.0, 47495.0, 47449.0, 47403.0, 47286.0, 47216.0, 47235.0, 47283.0, 47310.0, 47279.0, 47318.0, 47374.0, 47402.0, 47465.0, 47494.0, 47534.0, 47504.0, 47514.0, 47521.0, 47575.0, 47485.0, 47530.0, 47543.0, 47491.0, 47418.0, 47254.0, 47162.0, 47134.0, 47162.0, 47173.0, 47081.0, 47060.0, 46992.0, 46870.0, 46890.0, 47010.0, 47016.0, 47007.0, 47030.0, 47029.0, 47051.0, 47125.0, 47121.0, 47118.0, 47151.0, 47199.0, 47291.0, 47216.0, 47246.0, 47228.0, 47173.0, 47083.0, 47009.0, 47126.0, 47194.0, 47214.0, 47168.0, 46949.0, 46995.0, 47104.0, 47163.0, 47116.0, 46997.0, 46893.0, 46864.0, 46885.0, 47009.0, 47098.0, 47098.0, 47058.0, 47044.0, 47062.0, 47139.0, 47163.0, 47197.0, 47200.0, 47167.0, 47139.0, 47137.0, 47235.0, 47276.0, 47252.0, 47238.0, 47203.0, 47193.0, 47190.0, 47178.0, 47255.0, 47266.0, 47291.0, 47279.0, 47333.0, 47253.0, 47111.0, 47103.0, 47032.0, 46893.0, 46636.0, 46451.0, 46425.0, 46454.0, 46449.0, 46530.0, 46660.0, 46774.0, 46860.0, 46855.0, 46889.0, 46933.0, 46960.0, 46954.0, 46982.0, 47068.0, 47145.0, 47264.0, 47308.0, 47345.0, 47304.0, 47229.0, 47212.0, 47198.0, 47183.0, 47192.0, 47172.0, 47171.0, 47142.0, 47157.0, 47206.0, 47224.0, 47226.0, 47243.0]
    },
    "slices": {}
  }
}