{
  "AcquisitionMatrixPE": 116,
  "AcquisitionNumber": 1,
  "AcquisitionTime": "11:28:37.397500",
  "BandwidthPerPixelPhaseEncode": 18.539,
  "BaseResolution": 116,
  "BodyPartExamined": "HEAD",
  "ConsistencyInfo": "N4_VD13D_LATEST_20130810",
  "ConversionSoftware": "dcm2niix",
  "ConversionSoftwareVersion": "v1.0.20190410  (JP2:OpenJPEG) (JP-LS:CharLS) GCC5.5.0",
  "DerivedVendorReportedEchoSpacing": 0.000930006,
  "DeviceSerialNumber": "66014",
  "DwellTime": 3e-06,
  "EchoTime": 0.03,
  "EchoTrainLength": 50,
  "EffectiveEchoSpacing": 0.000465003,
  "FlipAngle": 81,
  "ImageComments": "Unaliased_MB3_PE4",
  "ImageOrientationPatientDICOM": [0.997002, 0.0680869, 0.0367537, -0.0679688, 0.997678, -0.00445546],
  "ImageType": [
    "ORIGINAL",
    "PRIMARY",
    "M",
    "MB",
    "ND",
    "MOSAIC"
],
  "ImagingFrequency": 123.261,
  "InPlanePhaseEncodingDirectionDICOM": "COL",
  "InstitutionAddress": "Yiheyuan_Road_5_Beijing_Haidian_CN_100871",
  "InstitutionName": "Peking_Univeristy",
  "InstitutionalDepartmentName": "Department",
  "MRAcquisitionType": "2D",
  "MagneticFieldStrength": 3,
  "Manufacturer": "Siemens",
  "ManufacturersModelName": "Prisma",
  "Modality": "MR",
  "MultibandAccelerationFactor": 3,
  "ParallelReductionFactorInPlane": 2,
  "PartialFourier": 0.875,
  "PatientPosition": "HFS",
  "PercentPhaseFOV": 100,
  "PhaseEncodingDirection": "j-",
  "PhaseEncodingSteps": 101,
  "PhaseResolution": 1,
  "PixelBandwidth": 1435,
  "ProcedureStepDescription": "Research_Projects_64CH",
  "ProtocolName": "mbep2d_bold_MB3_loca3",
  "PulseSequenceDetails": "%CustomerSeq%_cmrr_mbep2d_bold",
  "ReceiveCoilActiveElements": "HC1-6",
  "ReceiveCoilName": "HeadNeck_64",
  "ReconMatrixPE": 116,
  "RefLinesPE": 44,
  "RepetitionTime": 2,
  "SAR": 0.063116,
  "ScanOptions": "PFP_FS",
  "ScanningSequence": "EP",
  "SequenceName": "epfid2d1_116",
  "SequenceVariant": "SK_SS",
  "SeriesDescription": "mbep2d_bold_MB3_loca3",
  "SeriesNumber": 11,
  "ShimSetting": [-3439, -2106, -1974, 340, 0, -372, -93, -28],
  "SliceThickness": 1.9,
  "SliceTiming": [0, 0.9075, 1.815, 0.7425, 1.65, 0.5775, 1.485, 0.4125, 1.32, 0.2475, 1.155, 0.0825, 0.99, 1.8975, 0.825, 1.7325, 0.66, 1.5675, 0.495, 1.4025, 0.33, 1.2375, 0.165, 1.0725, 0, 0.9075, 1.815, 0.7425, 1.65, 0.5775, 1.485, 0.4125, 1.32, 0.2475, 1.155, 0.0825, 0.99, 1.8975, 0.825, 1.7325, 0.66, 1.5675, 0.495, 1.4025, 0.33, 1.2375, 0.165, 1.0725, 0, 0.9075, 1.815, 0.7425, 1.65, 0.5775, 1.485, 0.4125, 1.32, 0.2475, 1.155, 0.0825, 0.99, 1.8975, 0.825, 1.7325, 0.66, 1.5675, 0.495, 1.4025, 0.33, 1.2375, 0.165, 1.0725],
  "SoftwareVersions": "syngo_MR_D13D",
  "SpacingBetweenSlices": 1.9,
  "StationName": "AWP66014",
  "TaskName": "localizer",
  "TotalReadoutTime": 0.0534753,
  "TxRefAmp": 230.968,
  "WipMemBlock": "b5d84f3c-d407-44eb-96e9-15aaee25464e||Sequence: vd13d/master r/0735857; Nov 19 2014 09:21:40 by eja",
  "dcmmeta_affine": [
    [-1.8908661603927612, -0.1289062798023224, 0.07024622708559036, 116.69873809814453],
    [-0.1291303187608719, 1.8921469449996948, -0.003693593433126807, -87.83875274658203],
    [0.0697053000330925, 0.008450005203485489, 1.8986973762512207, -69.85041046142578],
    [0.0, 0.0, 0.0, 1.0]
],
  "dcmmeta_reorient_transform": [
    [0.0, -1.0, 0.0, 115.0],
    [1.0, 0.0, 0.0, 0.0],
    [0.0, 0.0, 1.0, 0.0],
    [0.0, 0.0, 0.0, 1.0]
],
  "dcmmeta_shape": [116, 116, 72, 164],
  "dcmmeta_slice_dim": 2,
  "dcmmeta_version": 0.6,
  "global": {
    "const": {
      "AcquisitionMatrix": [116, 0, 0, 116],
      "AngioFlag": "N",
      "BitsAllocated": 16,
      "BitsStored": 16,
      "BodyPartExamined": "HEAD",
      "Columns": 1044,
      "EchoNumbers": 1,
      "EchoTime": 30.0,
      "EchoTrainLength": 50,
      "FlipAngle": 81.0,
      "HighBit": 15,
      "ImageOrientationPatient": [0.9970021765758, 0.0680868947649, 0.03675370273046, -0.0679687668214, 0.99767750081799, -0.0044554571431],
      "ImagePositionPatient": [-919.42391945387, -1067.630817978, -97.301114641256],
      "ImageType": [
        "ORIGINAL",
        "PRIMARY",
        "M",
        "MB",
        "ND",
        "MOSAIC"
],
      "ImagedNucleus": "1H",
      "ImagingFrequency": 123.260547,
      "InPlanePhaseEncodingDirection": "COL",
      "LargestImagePixelValue": 65535,
      "MRAcquisitionType": "2D",
      "MagneticFieldStrength": 3.0,
      "Manufacturer": "SIEMENS",
      "ManufacturerModelName": "Prisma",
      "Modality": "MR",
      "NumberOfAverages": 1.0,
      "NumberOfPhaseEncodingSteps": 101,
      "PercentPhaseFieldOfView": 100.0,
      "PercentSampling": 100.0,
      "PerformedProcedureStepStartTime": "102535.668000",
      "PhotometricInterpretation": "MONOCHROME2",
      "PixelBandwidth": 1435.0,
      "PixelRepresentation": 0,
      "PixelSpacing": [1.8965517282486, 1.8965517282486],
      "ProtocolName": "mbep2d_bold_MB3_loca3",
      "RepetitionTime": 2000.0,
      "Rows": 1044,
      "SAR": 0.06311596126948,
      "SamplesPerPixel": 1,
      "ScanOptions": [
        "PFP",
        "FS"
],
      "ScanningSequence": "EP",
      "SequenceName": "epfid2d1_116",
      "SequenceVariant": [
        "SK",
        "SS"
],
      "SeriesDescription": "mbep2d_bold_MB3_loca3",
      "SeriesNumber": 11,
      "SeriesTime": "112848.480000",
      "SliceLocation": -65.317212040495,
      "SliceThickness": 1.8999999761581,
      "SmallestImagePixelValue": 0,
      "SoftwareVersions": "syngo MR D13D",
      "SpacingBetweenSlices": 1.8999999274192,
      "SpecificCharacterSet": "ISO_IR 100",
      "StudyID": "1",
      "StudyTime": "102535.620000",
      "TimeOfLastCalibration": ["123723.000000", "123723.000000"],
      "TransmitCoilName": "Body",
      "VariableFlipAngleFlag": "N",
      "WindowCenterWidthExplanation": "Algo1",
      "dBdt": 0.0},
    "slices": {}
  },
  "time": {
    "samples": {
      "AcquisitionNumber": [1, 2, 3, 4, 5, 6, 7, 8, 9, 10, 11, 12, 13, 14, 15, 16, 17, 18, 19, 20, 21, 22, 23, 24, 25, 26, 27, 28, 29, 30, 31, 32, 33, 34, 35, 36, 37, 38, 39, 40, 41, 42, 43, 44, 45, 46, 47, 48, 49, 50, 51, 52, 53, 54, 55, 56, 57, 58, 59, 60, 61, 62, 63, 64, 65, 66, 67, 68, 69, 70, 71, 72, 73, 74, 75, 76, 77, 78, 79, 80, 81, 82, 83, 84, 85, 86, 87, 88, 89, 90, 91, 92, 93, 94, 95, 96, 97, 98, 99, 100, 101, 102, 103, 104, 105, 106, 107, 108, 109, 110, 111, 112, 113, 114, 115, 116, 117, 118, 119, 120, 121, 122, 123, 124, 125, 126, 127, 128, 129, 130, 131, 132, 133, 134, 135, 136, 137, 138, 139, 140, 141, 142, 143, 144, 145, 146, 147, 148, 149, 150, 151, 152, 153, 154, 155, 156, 157, 158, 159, 160, 161, 162, 163, 164],
      "AcquisitionTime": ["112837.397500", "112839.397500", "112841.397500", "112843.397500", "112845.397500", "112847.397500", "112849.397500", "112851.397500", "112853.397500", "112855.397500", "112857.397500", "112859.397500", "112901.397500", "112903.397500", "112905.397500", "112907.397500", "112909.397500", "112911.397500", "112913.397500", "112915.397500", "112917.397500", "112919.397500", "112921.397500", "112923.397500", "112925.397500", "112927.397500", "112929.397500", "112931.397500", "112933.397500", "112935.397500", "112937.397500", "112939.397500", "112941.397500", "112943.397500", "112945.397500", "112947.397500", "112949.397500", "112951.397500", "112953.397500", "112955.397500", "112957.397500", "112959.397500", "113001.397500", "113003.397500", "113005.397500", "113007.397500", "113009.397500", "113011.397500", "113013.397500", "113015.397500", "113017.397500", "113019.397500", "113021.397500", "113023.397500", "113025.397500", "113027.397500", "113029.397500", "113031.397500", "113033.397500", "113035.397500", "113037.397500", "113039.397500", "113041.397500", "113043.397500", "113045.397500", "113047.397500", "113049.397500", "113051.397500", "113053.397500", "113055.397500", "113057.397500", "113059.397500", "113101.397500", "113103.397500", "113105.397500", "113107.397500", "113109.397500", "113111.397500", "113113.397500", "113115.397500", "113117.397500", "113119.397500", "113121.397500", "113123.397500", "113125.397500", "113127.397500", "113129.397500", "113131.397500", "113133.397500", "113135.397500", "113137.397500", "113139.397500", "113141.397500", "113143.397500", "113145.397500", "113147.397500", "113149.397500", "113151.397500", "113153.397500", "113155.397500", "113157.397500", "113159.397500", "113201.397500", "113203.397500", "113205.397500", "113207.397500", "113209.397500", "113211.397500", "113213.397500", "113215.397500", "113217.397500", "113219.397500", "113221.397500", "113223.397500", "113225.397500", "113227.397500", "113229.397500", "113231.397500", "113233.397500", "113235.397500", "113237.397500", "113239.397500", "113241.397500", "113243.397500", "113245.397500", "113247.397500", "113249.397500", "113251.397500", "113253.397500", "113255.400000", "113257.400000", "113259.400000", "113301.400000", "113303.400000", "113305.400000", "113307.400000", "113309.400000", "113311.400000", "113313.400000", "113315.400000", "113317.400000", "113319.400000", "113321.400000", "113323.400000", "113325.400000", "113327.400000", "113329.400000", "113331.400000", "113333.400000", "113335.400000", "113337.400000", "113339.400000", "113341.400000", "113343.400000", "113345.400000", "113347.400000", "113349.400000", "113351.400000", "113353.400000", "113355.400000", "113357.400000", "113359.400000", "113401.400000", "113403.400000"],
      "ContentTime": ["112848.485000", "112849.478000", "112850.478000", "112850.482000", "112851.477000", "112851.481000", "112852.477000", "112853.978000", "112855.979000", "112857.979000", "112859.979000", "112901.979000", "112903.978000", "112905.980000", "112907.980000", "112909.978000", "112911.978000", "112913.977000", "112915.977000", "112917.976000", "112919.979000", "112921.979000", "112923.979000", "112925.978000", "112927.978000", "112929.978000", "112931.978000", "112933.978000", "112935.979000", "112937.980000", "112939.980000", "112941.979000", "112943.978000", "112945.978000", "112947.978000", "112949.978000", "112951.978000", "112953.980000", "112955.980000", "112957.979000", "112959.979000", "113001.977000", "113003.979000", "113005.976000", "113007.979000", "113009.979000", "113011.979000", "113013.979000", "113015.979000", "113017.979000", "113019.979000", "113021.978000", "113023.978000", "113025.977000", "113027.979000", "113029.979000", "113031.979000", "113033.979000", "113035.979000", "113037.978000", "113039.978000", "113041.978000", "113043.977000", "113045.979000", "113047.980000", "113049.980000", "113051.979000", "113053.978000", "113055.976000", "113057.979000", "113059.976000", "113101.979000", "113103.980000", "113105.978000", "113107.979000", "113109.979000", "113111.978000", "113113.977000", "113115.978000", "113117.978000", "113119.979000", "113121.980000", "113123.979000", "113125.980000", "113127.979000", "113129.979000", "113131.977000", "113133.978000", "113135.978000", "113137.977000", "113139.980000", "113141.998000", "113143.978000", "113145.978000", "113147.978000", "113149.976000", "113151.978000", "113153.978000", "113155.978000", "113157.978000", "113159.979000", "113201.978000", "113203.979000", "113205.978000", "113207.978000", "113209.978000", "113211.978000", "113213.979000", "113215.979000", "113217.977000", "113219.980000", "113221.979000", "113223.978000", "113225.978000", "113227.978000", "113229.978000", "113231.980000", "113233.978000", "113235.979000", "113237.979000", "113239.978000", "113241.979000", "113243.978000", "113245.978000", "113247.976000", "113249.979000", "113251.979000", "113253.980000", "113255.976000", "113257.978000", "113259.978000", "113301.978000", "113303.978000", "113305.978000", "113307.979000", "113309.979000", "113311.979000", "113313.979000", "113315.978000", "113317.978000", "113319.978000", "113321.978000", "113323.979000", "113325.980000", "113327.979000", "113329.979000", "113331.978000", "113333.978000", "113335.977000", "113337.979000", "113339.978000", "113341.979000", "113343.980000", "113345.979000", "113347.979000", "113349.979000", "113351.978000", "113353.978000", "113355.978000", "113357.979000", "113359.978000", "113401.979000", "113403.979000", "113405.755000"],
      "InstanceCreationTime": ["112848.485000", "112849.478000", "112850.478000", "112850.482000", "112851.477000", "112851.481000", "112852.477000", "112853.978000", "112855.979000", "112857.979000", "112859.979000", "112901.979000", "112903.978000", "112905.980000", "112907.980000", "112909.978000", "112911.978000", "112913.977000", "112915.977000", "112917.976000", "112919.979000", "112921.979000", "112923.979000", "112925.978000", "112927.978000", "112929.978000", "112931.978000", "112933.978000", "112935.979000", "112937.980000", "112939.980000", "112941.979000", "112943.978000", "112945.978000", "112947.978000", "112949.978000", "112951.978000", "112953.980000", "112955.980000", "112957.979000", "112959.979000", "113001.977000", "113003.979000", "113005.976000", "113007.979000", "113009.979000", "113011.979000", "113013.979000", "113015.979000", "113017.979000", "113019.979000", "113021.978000", "113023.978000", "113025.977000", "113027.979000", "113029.979000", "113031.979000", "113033.979000", "113035.979000", "113037.978000", "113039.978000", "113041.978000", "113043.977000", "113045.979000", "113047.980000", "113049.980000", "113051.979000", "113053.978000", "113055.976000", "113057.979000", "113059.976000", "113101.979000", "113103.980000", "113105.978000", "113107.979000", "113109.979000", "113111.978000", "113113.977000", "113115.978000", "113117.978000", "113119.979000", "113121.980000", "113123.979000", "113125.980000", "113127.979000", "113129.979000", "113131.977000", "113133.978000", "113135.978000", "113137.977000", "113139.980000", "113141.998000", "113143.978000", "113145.978000", "113147.978000", "113149.976000", "113151.978000", "113153.978000", "113155.978000", "113157.978000", "113159.979000", "113201.978000", "113203.979000", "113205.978000", "113207.978000", "113209.978000", "113211.978000", "113213.979000", "113215.979000", "113217.977000", "113219.980000", "113221.979000", "113223.978000", "113225.978000", "113227.978000", "113229.978000", "113231.980000", "113233.978000", "113235.979000", "113237.979000", "113239.978000", "113241.979000", "113243.978000", "113245.978000", "113247.976000", "113249.979000", "113251.979000", "113253.980000", "113255.976000", "113257.978000", "113259.978000", "113301.978000", "113303.978000", "113305.978000", "113307.979000", "113309.979000", "113311.979000", "113313.979000", "113315.978000", "113317.978000", "113319.978000", "113321.978000", "113323.979000", "113325.980000", "113327.979000", "113329.979000", "113331.978000", "113333.978000", "113335.977000", "113337.979000", "113339.978000", "113341.979000", "113343.980000", "113345.979000", "113347.979000", "113349.979000", "113351.978000", "113353.978000", "113355.978000", "113357.979000", "113359.978000", "113401.979000", "113403.979000", "113405.755000"],
      "InstanceNumber": [1, 2, 3, 4, 5, 6, 7, 8, 9, 10, 11, 12, 13, 14, 15, 16, 17, 18, 19, 20, 21, 22, 23, 24, 25, 26, 27, 28, 29, 30, 31, 32, 33, 34, 35, 36, 37, 38, 39, 40, 41, 42, 43, 44, 45, 46, 47, 48, 49, 50, 51, 52, 53, 54, 55, 56, 57, 58, 59, 60, 61, 62, 63, 64, 65, 66, 67, 68, 69, 70, 71, 72, 73, 74, 75, 76, 77, 78, 79, 80, 81, 82, 83, 84, 85, 86, 87, 88, 89, 90, 91, 92, 93, 94, 95, 96, 97, 98, 99, 100, 101, 102, 103, 104, 105, 106, 107, 108, 109, 110, 111, 112, 113, 114, 115, 116, 117, 118, 119, 120, 121, 122, 123, 124, 125, 126, 127, 128, 129, 130, 131, 132, 133, 134, 135, 136, 137, 138, 139, 140, 141, 142, 143, 144, 145, 146, 147, 148, 149, 150, 151, 152, 153, 154, 155, 156, 157, 158, 159, 160, 161, 162, 163, 164],
      "WindowCenter": [18332.0, 18304.0, 18322.0, 18324.0, 18365.0, 18344.0, 18345.0, 18327.0, 18310.0, 18329.0, 18349.0, 18333.0, 18349.0, 18307.0, 18291.0, 18234.0, 18182.0, 18199.0, 18201.0, 18252.0, 18275.0, 18287.0, 18280.0, 18265.0, 18264.0, 18259.0, 18211.0, 18257.0, 18270.0, 18270.0, 18249.0, 18212.0, 18166.0, 18132.0, 18112.0, 18153.0, 18194.0, 18219.0, 18230.0, 18199.0, 18178.0, 18177.0, 18199.0, 18247.0, 18274.0, 18292.0, 18290.0, 18270.0, 18247.0, 18250.0, 18225.0, 18211.0, 18183.0, 18211.0, 18224.0, 18230.0, 18246.0, 18259.0, 18258.0, 18279.0, 18298.0, 18284.0, 18261.0, 18290.0, 18270.0, 18274.0, 18229.0, 18200.0, 18193.0, 18176.0, 18199.0, 18191.0, 18209.0, 18220.0, 18257.0, 18310.0, 18313.0, 18295.0, 18238.0, 18178.0, 18160.0, 18172.0, 18186.0, 18237.0, 18245.0, 18276.0, 18299.0, 18303.0, 18285.0, 18272.0, 18292.0, 18299.0, 18272.0, 18257.0, 18211.0, 18135.0, 18103.0, 18105.0, 18122.0, 18130.0, 18160.0, 18201.0, 18191.0, 18185.0, 18204.0, 18178.0, 18171.0, 18203.0, 18212.0, 18234.0, 18259.0, 18263.0, 18279.0, 18299.0, 18321.0, 18335.0, 18315.0, 18334.0, 18320.0, 18290.0, 18264.0, 18280.0, 18282.0, 18271.0, 18271.0, 18251.0, 18239.0, 18237.0, 18228.0, 18243.0, 18296.0, 18287.0, 18284.0, 18290.0, 18303.0, 18329.0, 18322.0, 18253.0, 18187.0, 18174.0, 18181.0, 18183.0, 18165.0, 18183.0, 18211.0, 18250.0, 18279.0, 18315.0, 18296.0, 18257.0, 18253.0, 18210.0, 18260.0, 18236.0, 18227.0, 18258.0, 18283.0, 18316.0, 18281.0, 18244.0, 18212.0, 18205.0, 18221.0, 18253.0],
      "WindowWidth": [47377.0, 47331.0, 47344.0, 47385.0, 47438.0, 47447.0, 47396.0, 47371.0, 47333.0, 47360.0, 47398.0, 47350.0, 47361.0, 47305.0, 47194.0, 47038.0, 46910.0, 46875.0, 46903.0, 47080.0, 47182.0, 47216.0, 47151.0, 47138.0, 47126.0, 47136.0, 46972.0, 47061.0, 47144.0, 47142.0, 47052.0, 46937.0, 46750.0, 46665.0, 46651.0, 46745.0, 46887.0, 46993.0, 47038.0, 46926.0, 46861.0, 46862.0, 46942.0, 47080.0, 47135.0, 47159.0, 47160.0, 47130.0, 47076.0, 47029.0, 46983.0, 46960.0, 46942.0, 46988.0, 47022.0, 47063.0, 47090.0, 47126.0, 47187.0, 47177.0, 47218.0, 47144.0, 47089.0, 47174.0, 47209.0, 47148.0, 46952.0, 46904.0, 46875.0, 46877.0, 46868.0, 46912.0, 46963.0, 47046.0, 47064.0, 47240.0, 47329.0, 47252.0, 47031.0, 46847.0, 46773.0, 46823.0, 46910.0, 47035.0, 47104.0, 47200.0, 47180.0, 47232.0, 47207.0, 47198.0, 47178.0, 47230.0, 47171.0, 47098.0, 46914.0, 46694.0, 46582.0, 46574.0, 46637.0, 46669.0, 46780.0, 46871.0, 46878.0, 46874.0, 46876.0, 46868.0, 46874.0, 46936.0, 46993.0, 47060.0, 47127.0, 47142.0, 47166.0, 47193.0, 47310.0, 47308.0, 47294.0, 47284.0, 47247.0, 47174.0, 47103.0, 47066.0, 47155.0, 47172.0, 47123.0, 47081.0, 47046.0, 47032.0, 46989.0, 47064.0, 47141.0, 47171.0, 47167.0, 47174.0, 47139.0, 47241.0, 47234.0, 47097.0, 46846.0, 46811.0, 46856.0, 46843.0, 46830.0, 46857.0, 46966.0, 47067.0, 47165.0, 47254.0, 47191.0, 47114.0, 47009.0, 46917.0, 47027.0, 46972.0, 46979.0, 47026.0, 47108.0, 47217.0, 47095.0, 47017.0, 46953.0, 46947.0, 47011.0, 47060.0]
    },
    "slices": {}
  }
}