{
  "AcquisitionMatrixPE": 116,
  "AcquisitionNumber": 1,
  "AcquisitionTime": "13:14:22.200000",
  "BandwidthPerPixelPhaseEncode": 18.539,
  "BaseResolution": 116,
  "BodyPartExamined": "HEAD",
  "ConsistencyInfo": "N4_VD13D_LATEST_20130810",
  "ConversionSoftware": "dcm2niix",
  "ConversionSoftwareVersion": "v1.0.20190410  (JP2:OpenJPEG) (JP-LS:CharLS) GCC5.5.0",
  "DerivedVendorReportedEchoSpacing": 0.000930006,
  "DeviceSerialNumber": "66014",
  "DwellTime": 3e-06,
  "EchoTime": 0.03,
  "EchoTrainLength": 50,
  "EffectiveEchoSpacing": 0.000465003,
  "FlipAngle": 81,
  "ImageComments": "Unaliased_MB3_PE4",
  "ImageOrientationPatientDICOM": [0.9999, -0.0120671, 0.0073202, 0.0122167, 0.99971, -0.0207451],
  "ImageType": [
    "ORIGINAL",
    "PRIMARY",
    "M",
    "MB",
    "ND",
    "MOSAIC"
],
  "ImagingFrequency": 123.261,
  "InPlanePhaseEncodingDirectionDICOM": "COL",
  "InstitutionAddress": "Yiheyuan_Road_5_Beijing_Haidian_CN_100871",
  "InstitutionName": "Peking_Univeristy",
  "InstitutionalDepartmentName": "Department",
  "MRAcquisitionType": "2D",
  "MagneticFieldStrength": 3,
  "Manufacturer": "Siemens",
  "ManufacturersModelName": "Prisma",
  "Modality": "MR",
  "MultibandAccelerationFactor": 3,
  "ParallelReductionFactorInPlane": 2,
  "PartialFourier": 0.875,
  "PatientPosition": "HFS",
  "PercentPhaseFOV": 100,
  "PhaseEncodingDirection": "j-",
  "PhaseEncodingSteps": 101,
  "PhaseResolution": 1,
  "PixelBandwidth": 1435,
  "ProcedureStepDescription": "Research_Projects_64CH",
  "ProtocolName": "mbep2d_bold_MB3_test1",
  "PulseSequenceDetails": "%CustomerSeq%_cmrr_mbep2d_bold",
  "ReceiveCoilActiveElements": "HC1-6",
  "ReceiveCoilName": "HeadNeck_64",
  "ReconMatrixPE": 116,
  "RefLinesPE": 44,
  "RepetitionTime": 2,
  "SAR": 0.052529,
  "ScanOptions": "PFP_FS",
  "ScanningSequence": "EP",
  "SequenceName": "epfid2d1_116",
  "SequenceVariant": "SK_SS",
  "SeriesDescription": "mbep2d_bold_MB3_test1",
  "SeriesNumber": 6,
  "ShimSetting": [-3438, -2138, -2033, 152, -52, -176, -54, -27],
  "SliceThickness": 1.9,
  "SliceTiming": [0, 0.905, 1.8125, 0.74, 1.6475, 0.575, 1.4825, 0.41, 1.3175, 0.245, 1.1525, 0.0825, 0.9875, 1.895, 0.8225, 1.73, 0.6575, 1.565, 0.4925, 1.4, 0.3275, 1.235, 0.165, 1.07, 0, 0.905, 1.8125, 0.74, 1.6475, 0.575, 1.4825, 0.41, 1.3175, 0.245, 1.1525, 0.0825, 0.9875, 1.895, 0.8225, 1.73, 0.6575, 1.565, 0.4925, 1.4, 0.3275, 1.235, 0.165, 1.07, 0, 0.905, 1.8125, 0.74, 1.6475, 0.575, 1.4825, 0.41, 1.3175, 0.245, 1.1525, 0.0825, 0.9875, 1.895, 0.8225, 1.73, 0.6575, 1.565, 0.4925, 1.4, 0.3275, 1.235, 0.165, 1.07],
  "SoftwareVersions": "syngo_MR_D13D",
  "SpacingBetweenSlices": 1.9,
  "StationName": "AWP66014",
  "TaskName": "retrieval",
  "TotalReadoutTime": 0.0534753,
  "TxRefAmp": 213.544,
  "WipMemBlock": "24750ac4-8f25-4c82-8260-0d7d613e2660||Sequence: vd13d/master r/0735857; Nov 19 2014 09:21:40 by eja",
  "dcmmeta_affine": [
    [-1.8963627815246582, 0.02316955476999283, 0.01342871692031622, 107.29542541503906],
    [0.022885872051119804, 1.8960020542144775, -0.03958175331354141, -106.71736907958984],
    [0.013883139938116074, 0.03934423252940178, 1.8995401859283447, -68.43170166015625],
    [0.0, 0.0, 0.0, 1.0]
],
  "dcmmeta_reorient_transform": [
    [0.0, -1.0, 0.0, 115.0],
    [1.0, 0.0, 0.0, 0.0],
    [0.0, 0.0, 1.0, 0.0],
    [0.0, 0.0, 0.0, 1.0]
],
  "dcmmeta_shape": [116, 116, 72, 289],
  "dcmmeta_slice_dim": 2,
  "dcmmeta_version": 0.6,
  "global": {
    "const": {
      "AcquisitionMatrix": [116, 0, 0, 116],
      "AngioFlag": "N",
      "BitsAllocated": 16,
      "BitsStored": 16,
      "BodyPartExamined": "HEAD",
      "Columns": 1044,
      "EchoNumbers": 1,
      "EchoTime": 30.0,
      "EchoTrainLength": 50,
      "FlipAngle": 81.0,
      "HighBit": 15,
      "ImageOrientationPatient": [0.99990039495735, -0.0120670965893, 0.00732020109267, 0.01221667443043, 0.9997101540056, -0.0207451402492],
      "ImagePositionPatient": [-1000.6229437553, -980.448755245, -52.093167933302],
      "ImageType": [
        "ORIGINAL",
        "PRIMARY",
        "M",
        "MB",
        "ND",
        "MOSAIC"
],
      "ImagedNucleus": "1H",
      "ImagingFrequency": 123.260639,
      "InPlanePhaseEncodingDirection": "COL",
      "LargestImagePixelValue": 65535,
      "MRAcquisitionType": "2D",
      "MagneticFieldStrength": 3.0,
      "Manufacturer": "SIEMENS",
      "ManufacturerModelName": "Prisma",
      "Modality": "MR",
      "NumberOfAverages": 1.0,
      "NumberOfPhaseEncodingSteps": 101,
      "PercentPhaseFieldOfView": 100.0,
      "PercentSampling": 100.0,
      "PerformedProcedureStepStartTime": "130301.253000",
      "PhotometricInterpretation": "MONOCHROME2",
      "PixelBandwidth": 1435.0,
      "PixelRepresentation": 0,
      "PixelSpacing": [1.8965517282486, 1.8965517282486],
      "ProtocolName": "mbep2d_bold_MB3_test1",
      "RepetitionTime": 2000.0,
      "Rows": 1044,
      "SAR": 0.05252904031532,
      "SamplesPerPixel": 1,
      "ScanOptions": [
        "PFP",
        "FS"
],
      "ScanningSequence": "EP",
      "SequenceName": "epfid2d1_116",
      "SequenceVariant": [
        "SK",
        "SS"
],
      "SeriesDescription": "mbep2d_bold_MB3_test1",
      "SeriesNumber": 6,
      "SeriesTime": "131433.866000",
      "SliceLocation": -65.433613792228,
      "SliceThickness": 1.8999999761581,
      "SmallestImagePixelValue": 0,
      "SoftwareVersions": "syngo MR D13D",
      "SpacingBetweenSlices": 1.9000000206417,
      "SpecificCharacterSet": "ISO_IR 100",
      "StudyID": "1",
      "StudyTime": "130301.189000",
      "TimeOfLastCalibration": ["123723.000000", "123723.000000"],
      "TransmitCoilName": "Body",
      "VariableFlipAngleFlag": "N",
      "WindowCenterWidthExplanation": "Algo1",
      "dBdt": 0.0},
    "slices": {}
  },
  "time": {
    "samples": {
      "AcquisitionNumber": [1, 2, 3, 4, 5, 6, 7, 8, 9, 10, 11, 12, 13, 14, 15, 16, 17, 18, 19, 20, 21, 22, 23, 24, 25, 26, 27, 28, 29, 30, 31, 32, 33, 34, 35, 36, 37, 38, 39, 40, 41, 42, 43, 44, 45, 46, 47, 48, 49, 50, 51, 52, 53, 54, 55, 56, 57, 58, 59, 60, 61, 62, 63, 64, 65, 66, 67, 68, 69, 70, 71, 72, 73, 74, 75, 76, 77, 78, 79, 80, 81, 82, 83, 84, 85, 86, 87, 88, 89, 90, 91, 92, 93, 94, 95, 96, 97, 98, 99, 100, 101, 102, 103, 104, 105, 106, 107, 108, 109, 110, 111, 112, 113, 114, 115, 116, 117, 118, 119, 120, 121, 122, 123, 124, 125, 126, 127, 128, 129, 130, 131, 132, 133, 134, 135, 136, 137, 138, 139, 140, 141, 142, 143, 144, 145, 146, 147, 148, 149, 150, 151, 152, 153, 154, 155, 156, 157, 158, 159, 160, 161, 162, 163, 164, 165, 166, 167, 168, 169, 170, 171, 172, 173, 174, 175, 176, 177, 178, 179, 180, 181, 182, 183, 184, 185, 186, 187, 188, 189, 190, 191, 192, 193, 194, 195, 196, 197, 198, 199, 200, 201, 202, 203, 204, 205, 206, 207, 208, 209, 210, 211, 212, 213, 214, 215, 216, 217, 218, 219, 220, 221, 222, 223, 224, 225, 226, 227, 228, 229, 230, 231, 232, 233, 234, 235, 236, 237, 238, 239, 240, 241, 242, 243, 244, 245, 246, 247, 248, 249, 250, 251, 252, 253, 254, 255, 256, 257, 258, 259, 260, 261, 262, 263, 264, 265, 266, 267, 268, 269, 270, 271, 272, 273, 274, 275, 276, 277, 278, 279, 280, 281, 282, 283, 284, 285, 286, 287, 288, 289],
      "AcquisitionTime": ["131422.200000", "131424.200000", "131426.200000", "131428.200000", "131430.200000", "131432.200000", "131434.200000", "131436.200000", "131438.200000", "131440.200000", "131442.200000", "131444.200000", "131446.200000", "131448.200000", "131450.200000", "131452.200000", "131454.200000", "131456.200000", "131458.200000", "131500.200000", "131502.200000", "131504.200000", "131506.200000", "131508.200000", "131510.200000", "131512.200000", "131514.200000", "131516.200000", "131518.200000", "131520.200000", "131522.200000", "131524.200000", "131526.200000", "131528.200000", "131530.200000", "131532.200000", "131534.200000", "131536.200000", "131538.200000", "131540.200000", "131542.200000", "131544.200000", "131546.200000", "131548.200000", "131550.200000", "131552.200000", "131554.200000", "131556.200000", "131558.200000", "131600.200000", "131602.200000", "131604.200000", "131606.200000", "131608.200000", "131610.200000", "131612.200000", "131614.200000", "131616.200000", "131618.200000", "131620.200000", "131622.200000", "131624.200000", "131626.200000", "131628.200000", "131630.200000", "131632.200000", "131634.200000", "131636.200000", "131638.200000", "131640.200000", "131642.200000", "131644.200000", "131646.200000", "131648.200000", "131650.200000", "131652.200000", "131654.200000", "131656.200000", "131658.200000", "131700.200000", "131702.200000", "131704.200000", "131706.200000", "131708.200000", "131710.200000", "131712.200000", "131714.200000", "131716.200000", "131718.200000", "131720.200000", "131722.200000", "131724.200000", "131726.200000", "131728.200000", "131730.200000", "131732.200000", "131734.200000", "131736.200000", "131738.200000", "131740.200000", "131742.200000", "131744.200000", "131746.200000", "131748.200000", "131750.200000", "131752.200000", "131754.200000", "131756.200000", "131758.200000", "131800.200000", "131802.200000", "131804.200000", "131806.200000", "131808.200000", "131810.200000", "131812.200000", "131814.200000", "131816.200000", "131818.200000", "131820.200000", "131822.200000", "131824.200000", "131826.200000", "131828.200000", "131830.200000", "131832.200000", "131834.200000", "131836.200000", "131838.200000", "131840.200000", "131842.200000", "131844.200000", "131846.200000", "131848.200000", "131850.200000", "131852.200000", "131854.200000", "131856.200000", "131858.200000", "131900.200000", "131902.200000", "131904.200000", "131906.200000", "131908.200000", "131910.200000", "131912.200000", "131914.200000", "131916.200000", "131918.200000", "131920.200000", "131922.200000", "131924.200000", "131926.200000", "131928.200000", "131930.200000", "131932.200000", "131934.200000", "131936.200000", "131938.200000", "131940.200000", "131942.200000", "131944.200000", "131946.200000", "131948.200000", "131950.200000", "131952.200000", "131954.200000", "131956.200000", "131958.200000", "132000.200000", "132002.200000", "132004.200000", "132006.200000", "132008.200000", "132010.200000", "132012.200000", "132014.200000", "132016.200000", "132018.200000", "132020.200000", "132022.200000", "132024.200000", "132026.200000", "132028.200000", "132030.200000", "132032.200000", "132034.200000", "132036.200000", "132038.200000", "132040.200000", "132042.200000", "132044.200000", "132046.200000", "132048.200000", "132050.200000", "132052.200000", "132054.200000", "132056.200000", "132058.200000", "132100.200000", "132102.200000", "132104.200000", "132106.200000", "132108.200000", "132110.200000", "132112.200000", "132114.200000", "132116.200000", "132118.200000", "132120.200000", "132122.200000", "132124.200000", "132126.200000", "132128.200000", "132130.200000", "132132.200000", "132134.200000", "132136.200000", "132138.200000", "132140.200000", "132142.200000", "132144.200000", "132146.200000", "132148.200000", "132150.200000", "132152.200000", "132154.200000", "132156.200000", "132158.200000", "132200.200000", "132202.200000", "132204.200000", "132206.200000", "132208.200000", "132210.200000", "132212.200000", "132214.200000", "132216.200000", "132218.200000", "132220.200000", "132222.200000", "132224.200000", "132226.200000", "132228.200000", "132230.200000", "132232.200000", "132234.200000", "132236.200000", "132238.202500", "132240.202500", "132242.202500", "132244.202500", "132246.202500", "132248.202500", "132250.202500", "132252.202500", "132254.202500", "132256.202500", "132258.202500", "132300.202500", "132302.202500", "132304.202500", "132306.202500", "132308.202500", "132310.202500", "132312.202500", "132314.202500", "132316.202500", "132318.202500", "132320.202500", "132322.202500", "132324.202500", "132326.202500", "132328.202500", "132330.202500", "132332.202500", "132334.202500", "132336.202500", "132338.202500", "132340.202500", "132342.202500", "132344.202500", "132346.202500", "132348.202500", "132350.202500", "132352.202500", "132354.202500", "132356.202500", "132358.202500"],
      "ContentTime": ["131433.871000", "131434.864000", "131434.868000", "131435.863000", "131435.868000", "131436.864000", "131437.865000", "131438.864000", "131440.864000", "131442.865000", "131444.865000", "131446.865000", "131448.864000", "131450.864000", "131452.865000", "131454.865000", "131456.865000", "131458.864000", "131500.865000", "131502.865000", "131504.865000", "131506.865000", "131508.865000", "131510.865000", "131512.865000", "131514.865000", "131516.865000", "131518.865000", "131520.863000", "131522.883000", "131524.865000", "131526.864000", "131528.865000", "131530.865000", "131532.862000", "131534.865000", "131536.865000", "131538.863000", "131540.865000", "131542.864000", "131544.865000", "131546.864000", "131548.865000", "131550.864000", "131552.864000", "131554.863000", "131556.865000", "131558.865000", "131600.865000", "131602.865000", "131604.865000", "131606.865000", "131608.865000", "131610.865000", "131612.865000", "131614.865000", "131616.865000", "131618.865000", "131620.865000", "131622.865000", "131624.865000", "131626.865000", "131628.865000", "131630.865000", "131632.865000", "131634.865000", "131636.865000", "131638.865000", "131640.865000", "131642.864000", "131644.865000", "131646.863000", "131648.865000", "131650.865000", "131652.865000", "131654.865000", "131656.865000", "131658.874000", "131700.864000", "131702.865000", "131704.865000", "131706.865000", "131708.864000", "131710.865000", "131712.863000", "131714.865000", "131716.865000", "131718.865000", "131720.865000", "131722.865000", "131724.865000", "131726.865000", "131728.865000", "131730.865000", "131732.866000", "131734.865000", "131736.865000", "131738.864000", "131740.865000", "131742.865000", "131744.865000", "131746.865000", "131748.865000", "131750.864000", "131752.864000", "131754.865000", "131756.865000", "131758.864000", "131800.865000", "131802.865000", "131804.865000", "131806.864000", "131808.865000", "131810.864000", "131812.865000", "131814.865000", "131816.864000", "131818.865000", "131820.865000", "131822.865000", "131824.866000", "131826.865000", "131828.865000", "131830.865000", "131832.865000", "131834.865000", "131836.866000", "131838.883000", "131840.864000", "131842.865000", "131844.864000", "131846.864000", "131848.865000", "131850.865000", "131852.865000", "131854.865000", "131856.863000", "131858.865000", "131900.865000", "131902.864000", "131904.866000", "131906.865000", "131908.865000", "131910.865000", "131912.866000", "131914.865000", "131916.865000", "131918.865000", "131920.865000", "131922.865000", "131924.866000", "131926.865000", "131928.865000", "131930.865000", "131932.865000", "131934.866000", "131936.865000", "131938.865000", "131940.865000", "131942.865000", "131944.865000", "131946.865000", "131948.865000", "131950.865000", "131952.865000", "131954.865000", "131956.865000", "131958.865000", "132000.865000", "132002.866000", "132004.865000", "132006.865000", "132008.865000", "132010.865000", "132012.863000", "132014.864000", "132016.864000", "132018.865000", "132020.865000", "132022.865000", "132024.865000", "132026.865000", "132028.865000", "132030.865000", "132032.865000", "132034.865000", "132036.865000", "132038.865000", "132040.865000", "132042.866000", "132044.864000", "132046.865000", "132048.865000", "132050.865000", "132052.865000", "132054.866000", "132056.865000", "132058.865000", "132100.865000", "132102.865000", "132104.864000", "132106.865000", "132108.865000", "132110.865000", "132112.865000", "132114.865000", "132116.865000", "132118.864000", "132120.865000", "132122.864000", "132124.865000", "132126.865000", "132128.865000", "132130.865000", "132132.865000", "132134.866000", "132136.865000", "132138.865000", "132140.865000", "132142.865000", "132144.865000", "132146.865000", "132148.865000", "132150.864000", "132152.864000", "132154.865000", "132156.865000", "132158.865000", "132200.865000", "132202.865000", "132204.865000", "132206.865000", "132208.865000", "132210.865000", "132212.864000", "132214.865000", "132216.865000", "132218.865000", "132220.865000", "132222.865000", "132224.865000", "132226.865000", "132228.865000", "132230.865000", "132232.864000", "132234.865000", "132236.865000", "132238.865000", "132240.865000", "132242.865000", "132244.865000", "132246.865000", "132248.865000", "132250.876000", "132252.864000", "132254.865000", "132256.865000", "132258.865000", "132300.865000", "132302.865000", "132304.865000", "132306.865000", "132308.866000", "132310.865000", "132312.864000", "132314.864000", "132316.863000", "132318.864000", "132320.865000", "132322.865000", "132324.864000", "132326.865000", "132328.865000", "132330.865000", "132332.865000", "132334.865000", "132336.865000", "132338.865000", "132340.865000", "132342.864000", "132344.865000", "132346.865000", "132348.865000", "132350.865000", "132352.865000", "132354.865000", "132356.865000", "132358.865000", "132400.772000"],
      "InstanceCreationTime": ["131433.871000", "131434.864000", "131434.868000", "131435.863000", "131435.868000", "131436.864000", "131437.865000", "131438.864000", "131440.864000", "131442.865000", "131444.865000", "131446.865000", "131448.864000", "131450.864000", "131452.865000", "131454.865000", "131456.865000", "131458.864000", "131500.865000", "131502.865000", "131504.865000", "131506.865000", "131508.865000", "131510.865000", "131512.865000", "131514.865000", "131516.865000", "131518.865000", "131520.863000", "131522.883000", "131524.865000", "131526.864000", "131528.865000", "131530.865000", "131532.862000", "131534.865000", "131536.865000", "131538.863000", "131540.865000", "131542.864000", "131544.865000", "131546.864000", "131548.865000", "131550.864000", "131552.864000", "131554.863000", "131556.865000", "131558.865000", "131600.865000", "131602.865000", "131604.865000", "131606.865000", "131608.865000", "131610.865000", "131612.865000", "131614.865000", "131616.865000", "131618.865000", "131620.865000", "131622.865000", "131624.865000", "131626.865000", "131628.865000", "131630.865000", "131632.865000", "131634.865000", "131636.865000", "131638.865000", "131640.865000", "131642.864000", "131644.865000", "131646.863000", "131648.865000", "131650.865000", "131652.865000", "131654.865000", "131656.865000", "131658.874000", "131700.864000", "131702.865000", "131704.865000", "131706.865000", "131708.864000", "131710.865000", "131712.863000", "131714.865000", "131716.865000", "131718.865000", "131720.865000", "131722.865000", "131724.865000", "131726.865000", "131728.865000", "131730.865000", "131732.866000", "131734.865000", "131736.865000", "131738.864000", "131740.865000", "131742.865000", "131744.865000", "131746.865000", "131748.865000", "131750.864000", "131752.864000", "131754.865000", "131756.865000", "131758.864000", "131800.865000", "131802.865000", "131804.865000", "131806.864000", "131808.865000", "131810.864000", "131812.865000", "131814.865000", "131816.864000", "131818.865000", "131820.865000", "131822.865000", "131824.866000", "131826.865000", "131828.865000", "131830.865000", "131832.865000", "131834.865000", "131836.866000", "131838.883000", "131840.864000", "131842.865000", "131844.864000", "131846.864000", "131848.865000", "131850.865000", "131852.865000", "131854.865000", "131856.863000", "131858.865000", "131900.865000", "131902.864000", "131904.866000", "131906.865000", "131908.865000", "131910.865000", "131912.866000", "131914.865000", "131916.865000", "131918.865000", "131920.865000", "131922.865000", "131924.866000", "131926.865000", "131928.865000", "131930.865000", "131932.865000", "131934.866000", "131936.865000", "131938.865000", "131940.865000", "131942.865000", "131944.865000", "131946.865000", "131948.865000", "131950.865000", "131952.865000", "131954.865000", "131956.865000", "131958.865000", "132000.865000", "132002.866000", "132004.865000", "132006.865000", "132008.865000", "132010.865000", "132012.863000", "132014.864000", "132016.864000", "132018.865000", "132020.865000", "132022.865000", "132024.865000", "132026.865000", "132028.865000", "132030.865000", "132032.865000", "132034.865000", "132036.865000", "132038.865000", "132040.865000", "132042.866000", "132044.864000", "132046.865000", "132048.865000", "132050.865000", "132052.865000", "132054.866000", "132056.865000", "132058.865000", "132100.865000", "132102.865000", "132104.864000", "132106.865000", "132108.865000", "132110.865000", "132112.865000", "132114.865000", "132116.865000", "132118.864000", "132120.865000", "132122.864000", "132124.865000", "132126.865000", "132128.865000", "132130.865000", "132132.865000", "132134.866000", "132136.865000", "132138.865000", "132140.865000", "132142.865000", "132144.865000", "132146.865000", "132148.865000", "132150.864000", "132152.864000", "132154.865000", "132156.865000", "132158.865000", "132200.865000", "132202.865000", "132204.865000", "132206.865000", "132208.865000", "132210.865000", "132212.864000", "132214.865000", "132216.865000", "132218.865000", "132220.865000", "132222.865000", "132224.865000", "132226.865000", "132228.865000", "132230.865000", "132232.864000", "132234.865000", "132236.865000", "132238.865000", "132240.865000", "132242.865000", "132244.865000", "132246.865000", "132248.865000", "132250.876000", "132252.864000", "132254.865000", "132256.865000", "132258.865000", "132300.865000", "132302.865000", "132304.865000", "132306.865000", "132308.866000", "132310.865000", "132312.864000", "132314.864000", "132316.863000", "132318.864000", "132320.865000", "132322.865000", "132324.864000", "132326.865000", "132328.865000", "132330.865000", "132332.865000", "132334.865000", "132336.865000", "132338.865000", "132340.865000", "132342.864000", "132344.865000", "132346.865000", "132348.865000", "132350.865000", "132352.865000", "132354.865000", "132356.865000", "132358.865000", "132400.772000"],
      "InstanceNumber": [1, 2, 3, 4, 5, 6, 7, 8, 9, 10, 11, 12, 13, 14, 15, 16, 17, 18, 19, 20, 21, 22, 23, 24, 25, 26, 27, 28, 29, 30, 31, 32, 33, 34, 35, 36, 37, 38, 39, 40, 41, 42, 43, 44, 45, 46, 47, 48, 49, 50, 51, 52, 53, 54, 55, 56, 57, 58, 59, 60, 61, 62, 63, 64, 65, 66, 67, 68, 69, 70, 71, 72, 73, 74, 75, 76, 77, 78, 79, 80, 81, 82, 83, 84, 85, 86, 87, 88, 89, 90, 91, 92, 93, 94, 95, 96, 97, 98, 99, 100, 101, 102, 103, 104, 105, 106, 107, 108, 109, 110, 111, 112, 113, 114, 115, 116, 117, 118, 119, 120, 121, 122, 123, 124, 125, 126, 127, 128, 129, 130, 131, 132, 133, 134, 135, 136, 137, 138, 139, 140, 141, 142, 143, 144, 145, 146, 147, 148, 149, 150, 151, 152, 153, 154, 155, 156, 157, 158, 159, 160, 161, 162, 163, 164, 165, 166, 167, 168, 169, 170, 171, 172, 173, 174, 175, 176, 177, 178, 179, 180, 181, 182, 183, 184, 185, 186, 187, 188, 189, 190, 191, 192, 193, 194, 195, 196, 197, 198, 199, 200, 201, 202, 203, 204, 205, 206, 207, 208, 209, 210, 211, 212, 213, 214, 215, 216, 217, 218, 219, 220, 221, 222, 223, 224, 225, 226, 227, 228, 229, 230, 231, 232, 233, 234, 235, 236, 237, 238, 239, 240, 241, 242, 243, 244, 245, 246, 247, 248, 249, 250, 251, 252, 253, 254, 255, 256, 257, 258, 259, 260, 261, 262, 263, 264, 265, 266, 267, 268, 269, 270, 271, 272, 273, 274, 275, 276, 277, 278, 279, 280, 281, 282, 283, 284, 285, 286, 287, 288, 289],
      "WindowCenter": [15651.0, 15629.0, 15630.0, 15645.0, 15657.0, 15662.0, 15644.0, 15638.0, 15629.0, 15637.0, 15626.0, 15630.0, 15638.0, 15624.0, 15632.0, 15641.0, 15645.0, 15649.0, 15632.0, 15631.0, 15651.0, 15633.0, 15620.0, 15649.0, 15646.0, 15649.0, 15642.0, 15637.0, 15624.0, 15648.0, 15640.0, 15646.0, 15639.0, 15619.0, 15642.0, 15633.0, 15634.0, 15647.0, 15621.0, 15650.0, 15636.0, 15637.0, 15639.0, 15647.0, 15644.0, 15649.0, 15660.0, 15642.0, 15638.0, 15652.0, 15647.0, 15626.0, 15654.0, 15657.0, 15660.0, 15649.0, 15652.0, 15651.0, 15648.0, 15650.0, 15626.0, 15621.0, 15631.0, 15634.0, 15643.0, 15668.0, 15653.0, 15647.0, 15650.0, 15655.0, 15649.0, 15648.0, 15648.0, 15647.0, 15653.0, 15653.0, 15651.0, 15655.0, 15659.0, 15665.0, 15661.0, 15640.0, 15655.0, 15655.0, 15661.0, 15658.0, 15673.0, 15662.0, 15655.0, 15671.0, 15656.0, 15663.0, 15659.0, 15656.0, 15657.0, 15665.0, 15673.0, 15679.0, 15656.0, 15673.0, 15663.0, 15677.0, 15644.0, 15671.0, 15668.0, 15656.0, 15656.0, 15668.0, 15655.0, 15662.0, 15660.0, 15660.0, 15669.0, 15668.0, 15678.0, 15669.0, 15649.0, 15666.0, 15671.0, 15681.0, 15682.0, 15679.0, 15683.0, 15666.0, 15659.0, 15665.0, 15665.0, 15653.0, 15652.0, 15674.0, 15668.0, 15674.0, 15660.0, 15663.0, 15679.0, 15670.0, 15663.0, 15680.0, 15671.0, 15658.0, 15675.0, 15667.0, 15663.0, 15680.0, 15687.0, 15676.0, 15689.0, 15670.0, 15667.0, 15673.0, 15674.0, 15660.0, 15666.0, 15650.0, 15670.0, 15680.0, 15679.0, 15691.0, 15679.0, 15686.0, 15675.0, 15675.0, 15679.0, 15673.0, 15669.0, 15697.0, 15666.0, 15661.0, 15678.0, 15676.0, 15690.0, 15684.0, 15664.0, 15674.0, 15676.0, 15656.0, 15672.0, 15665.0, 15677.0, 15685.0, 15678.0, 15677.0, 15699.0, 15686.0, 15681.0, 15686.0, 15688.0, 15675.0, 15663.0, 15676.0, 15701.0, 15678.0, 15704.0, 15694.0, 15694.0, 15703.0, 15692.0, 15693.0, 15684.0, 15684.0, 15684.0, 15687.0, 15685.0, 15684.0, 15687.0, 15671.0, 15687.0, 15688.0, 15698.0, 15702.0, 15685.0, 15676.0, 15682.0, 15689.0, 15699.0, 15687.0, 15684.0, 15672.0, 15694.0, 15701.0, 15689.0, 15694.0, 15679.0, 15663.0, 15679.0, 15693.0, 15694.0, 15695.0, 15668.0, 15695.0, 15709.0, 15706.0, 15706.0, 15684.0, 15686.0, 15692.0, 15698.0, 15696.0, 15680.0, 15697.0, 15701.0, 15716.0, 15722.0, 15705.0, 15700.0, 15704.0, 15690.0, 15689.0, 15696.0, 15691.0, 15688.0, 15691.0, 15688.0, 15682.0, 15696.0, 15695.0, 15700.0, 15701.0, 15684.0, 15680.0, 15686.0, 15695.0, 15692.0, 15703.0, 15713.0, 15684.0, 15697.0, 15692.0, 15699.0, 15683.0, 15688.0, 15699.0, 15697.0, 15691.0, 15699.0, 15694.0, 15709.0, 15699.0, 15695.0, 15704.0, 15681.0, 15685.0, 15695.0, 15694.0, 15693.0, 15709.0, 15687.0, 15712.0, 15707.0],
      "WindowWidth": [46379.0, 46334.0, 46430.0, 46443.0, 46359.0, 46349.0, 46416.0, 46386.0, 46351.0, 46383.0, 46331.0, 46267.0, 46274.0, 46305.0, 46352.0, 46356.0, 46251.0, 46243.0, 46311.0, 46351.0, 46339.0, 46256.0, 46232.0, 46284.0, 46324.0, 46299.0, 46292.0, 46314.0, 46291.0, 46283.0, 46250.0, 46256.0, 46292.0, 46409.0, 46316.0, 46229.0, 46205.0, 46244.0, 46330.0, 46296.0, 46245.0, 46275.0, 46223.0, 46148.0, 46188.0, 46229.0, 46169.0, 46196.0, 46125.0, 46097.0, 46218.0, 46252.0, 46178.0, 46183.0, 46256.0, 46301.0, 46314.0, 46230.0, 46175.0, 46231.0, 46266.0, 46247.0, 46269.0, 46243.0, 46198.0, 46219.0, 46261.0, 46257.0, 46273.0, 46261.0, 46216.0, 46216.0, 46257.0, 46243.0, 46193.0, 46165.0, 46165.0, 46222.0, 46225.0, 46205.0, 46243.0, 46237.0, 46181.0, 46195.0, 46254.0, 46238.0, 46182.0, 46227.0, 46249.0, 46277.0, 46305.0, 46271.0, 46309.0, 46289.0, 46222.0, 46217.0, 46251.0, 46284.0, 46320.0, 46276.0, 46216.0, 46280.0, 46321.0, 46262.0, 46275.0, 46305.0, 46249.0, 46217.0, 46235.0, 46269.0, 46321.0, 46253.0, 46233.0, 46330.0, 46366.0, 46315.0, 46301.0, 46299.0, 46276.0, 46299.0, 46287.0, 46258.0, 46302.0, 46393.0, 46304.0, 46202.0, 46217.0, 46316.0, 46301.0, 46221.0, 46165.0, 46211.0, 46241.0, 46216.0, 46241.0, 46234.0, 46174.0, 46203.0, 46223.0, 46226.0, 46226.0, 46178.0, 46136.0, 46218.0, 46280.0, 46242.0, 46224.0, 46194.0, 46178.0, 46197.0, 46185.0, 46201.0, 46246.0, 46274.0, 46261.0, 46284.0, 46244.0, 46200.0, 46259.0, 46235.0, 46197.0, 46226.0, 46217.0, 46239.0, 46234.0, 46174.0, 46137.0, 46161.0, 46147.0, 46216.0, 46254.0, 46247.0, 46203.0, 46199.0, 46255.0, 46252.0, 46211.0, 46205.0, 46214.0, 46261.0, 46269.0, 46241.0, 46231.0, 46209.0, 46245.0, 46372.0, 46389.0, 46348.0, 46339.0, 46253.0, 46194.0, 46298.0, 46333.0, 46354.0, 46393.0, 46331.0, 46309.0, 46419.0, 46384.0, 46288.0, 46263.0, 46236.0, 46246.0, 46248.0, 46237.0, 46236.0, 46250.0, 46236.0, 46177.0, 46152.0, 46180.0, 46228.0, 46273.0, 46278.0, 46231.0, 46224.0, 46278.0, 46349.0, 46338.0, 46288.0, 46225.0, 46269.0, 46353.0, 46326.0, 46322.0, 46281.0, 46242.0, 46296.0, 46316.0, 46271.0, 46296.0, 46280.0, 46223.0, 46246.0, 46264.0, 46281.0, 46258.0, 46296.0, 46298.0, 46274.0, 46292.0, 46291.0, 46308.0, 46334.0, 46275.0, 46251.0, 46267.0, 46349.0, 46354.0, 46292.0, 46262.0, 46253.0, 46293.0, 46368.0, 46392.0, 46377.0, 46300.0, 46290.0, 46303.0, 46286.0, 46278.0, 46283.0, 46280.0, 46291.0, 46273.0, 46265.0, 46302.0, 46310.0, 46287.0, 46288.0, 46237.0, 46245.0, 46301.0, 46323.0, 46273.0, 46270.0, 46269.0, 46287.0, 46283.0, 46262.0, 46273.0, 46371.0, 46420.0, 46338.0, 46311.0, 46269.0, 46252.0, 46314.0, 46406.0]
    },
    "slices": {}
  }
}