{
  "AcquisitionMatrixPE": 116,
  "AcquisitionNumber": 1,
  "AcquisitionTime": "13:35:40.567500",
  "BandwidthPerPixelPhaseEncode": 18.539,
  "BaseResolution": 116,
  "BodyPartExamined": "HEAD",
  "ConsistencyInfo": "N4_VD13D_LATEST_20130810",
  "ConversionSoftware": "dcm2niix",
  "ConversionSoftwareVersion": "v1.0.20190410  (JP2:OpenJPEG) (JP-LS:CharLS) GCC5.5.0",
  "DerivedVendorReportedEchoSpacing": 0.000930006,
  "DeviceSerialNumber": "66014",
  "DwellTime": 3e-06,
  "EchoTime": 0.03,
  "EchoTrainLength": 50,
  "EffectiveEchoSpacing": 0.000465003,
  "FlipAngle": 81,
  "ImageComments": "Unaliased_MB3_PE4",
  "ImageOrientationPatientDICOM": [0.9999, -0.0120671, 0.0073202, 0.0122167, 0.99971, -0.0207451],
  "ImageType": [
    "ORIGINAL",
    "PRIMARY",
    "M",
    "MB",
    "ND",
    "MOSAIC"
],
  "ImagingFrequency": 123.261,
  "InPlanePhaseEncodingDirectionDICOM": "COL",
  "InstitutionAddress": "Yiheyuan_Road_5_Beijing_Haidian_CN_100871",
  "InstitutionName": "Peking_Univeristy",
  "InstitutionalDepartmentName": "Department",
  "MRAcquisitionType": "2D",
  "MagneticFieldStrength": 3,
  "Manufacturer": "Siemens",
  "ManufacturersModelName": "Prisma",
  "Modality": "MR",
  "MultibandAccelerationFactor": 3,
  "ParallelReductionFactorInPlane": 2,
  "PartialFourier": 0.875,
  "PatientPosition": "HFS",
  "PercentPhaseFOV": 100,
  "PhaseEncodingDirection": "j-",
  "PhaseEncodingSteps": 101,
  "PhaseResolution": 1,
  "PixelBandwidth": 1435,
  "ProcedureStepDescription": "Research_Projects_64CH",
  "ProtocolName": "mbep2d_bold_MB3_test3",
  "PulseSequenceDetails": "%CustomerSeq%_cmrr_mbep2d_bold",
  "ReceiveCoilActiveElements": "HC1-6",
  "ReceiveCoilName": "HeadNeck_64",
  "ReconMatrixPE": 116,
  "RefLinesPE": 44,
  "RepetitionTime": 2,
  "SAR": 0.052529,
  "ScanOptions": "PFP_FS",
  "ScanningSequence": "EP",
  "SequenceName": "epfid2d1_116",
  "SequenceVariant": "SK_SS",
  "SeriesDescription": "mbep2d_bold_MB3_test3",
  "SeriesNumber": 8,
  "ShimSetting": [-3438, -2138, -2033, 152, -52, -176, -54, -27],
  "SliceThickness": 1.9,
  "SliceTiming": [0, 0.9075, 1.815, 0.7425, 1.65, 0.5775, 1.485, 0.4125, 1.32, 0.2475, 1.155, 0.0825, 0.99, 1.8975, 0.825, 1.7325, 0.66, 1.5675, 0.495, 1.4025, 0.33, 1.2375, 0.165, 1.0725, 0, 0.9075, 1.815, 0.7425, 1.65, 0.5775, 1.485, 0.4125, 1.32, 0.2475, 1.155, 0.0825, 0.99, 1.8975, 0.825, 1.7325, 0.66, 1.5675, 0.495, 1.4025, 0.33, 1.2375, 0.165, 1.0725, 0, 0.9075, 1.815, 0.7425, 1.65, 0.5775, 1.485, 0.4125, 1.32, 0.2475, 1.155, 0.0825, 0.99, 1.8975, 0.825, 1.7325, 0.66, 1.5675, 0.495, 1.4025, 0.33, 1.2375, 0.165, 1.0725],
  "SoftwareVersions": "syngo_MR_D13D",
  "SpacingBetweenSlices": 1.9,
  "StationName": "AWP66014",
  "TaskName": "retrieval",
  "TotalReadoutTime": 0.0534753,
  "TxRefAmp": 213.544,
  "WipMemBlock": "55e68b22-5f52-4bd6-8a98-6f9c8c834de0||Sequence: vd13d/master r/0735857; Nov 19 2014 09:21:40 by eja",
  "dcmmeta_affine": [
    [-1.8963627815246582, 0.02316955476999283, 0.01342871692031622, 107.29542541503906],
    [0.022885872051119804, 1.8960020542144775, -0.03958175331354141, -106.71736907958984],
    [0.013883139938116074, 0.03934423252940178, 1.8995401859283447, -68.43170166015625],
    [0.0, 0.0, 0.0, 1.0]
],
  "dcmmeta_reorient_transform": [
    [0.0, -1.0, 0.0, 115.0],
    [1.0, 0.0, 0.0, 0.0],
    [0.0, 0.0, 1.0, 0.0],
    [0.0, 0.0, 0.0, 1.0]
],
  "dcmmeta_shape": [116, 116, 72, 289],
  "dcmmeta_slice_dim": 2,
  "dcmmeta_version": 0.6,
  "global": {
    "const": {
      "AcquisitionMatrix": [116, 0, 0, 116],
      "AngioFlag": "N",
      "BitsAllocated": 16,
      "BitsStored": 16,
      "BodyPartExamined": "HEAD",
      "Columns": 1044,
      "EchoNumbers": 1,
      "EchoTime": 30.0,
      "EchoTrainLength": 50,
      "FlipAngle": 81.0,
      "HighBit": 15,
      "ImageOrientationPatient": [0.99990039495735, -0.0120670965893, 0.00732020109267, 0.01221667443043, 0.9997101540056, -0.0207451402492],
      "ImagePositionPatient": [-1000.6229437553, -980.448755245, -52.093167933302],
      "ImageType": [
        "ORIGINAL",
        "PRIMARY",
        "M",
        "MB",
        "ND",
        "MOSAIC"
],
      "ImagedNucleus": "1H",
      "ImagingFrequency": 123.260642,
      "InPlanePhaseEncodingDirection": "COL",
      "LargestImagePixelValue": 65535,
      "MRAcquisitionType": "2D",
      "MagneticFieldStrength": 3.0,
      "Manufacturer": "SIEMENS",
      "ManufacturerModelName": "Prisma",
      "Modality": "MR",
      "NumberOfAverages": 1.0,
      "NumberOfPhaseEncodingSteps": 101,
      "PercentPhaseFieldOfView": 100.0,
      "PercentSampling": 100.0,
      "PerformedProcedureStepStartTime": "130301.253000",
      "PhotometricInterpretation": "MONOCHROME2",
      "PixelBandwidth": 1435.0,
      "PixelRepresentation": 0,
      "PixelSpacing": [1.8965517282486, 1.8965517282486],
      "ProtocolName": "mbep2d_bold_MB3_test3",
      "RepetitionTime": 2000.0,
      "Rows": 1044,
      "SAR": 0.05252904031511,
      "SamplesPerPixel": 1,
      "ScanOptions": [
        "PFP",
        "FS"
],
      "ScanningSequence": "EP",
      "SequenceName": "epfid2d1_116",
      "SequenceVariant": [
        "SK",
        "SS"
],
      "SeriesDescription": "mbep2d_bold_MB3_test3",
      "SeriesNumber": 8,
      "SeriesTime": "133552.347000",
      "SliceLocation": -65.433613792228,
      "SliceThickness": 1.8999999761581,
      "SmallestImagePixelValue": 0,
      "SoftwareVersions": "syngo MR D13D",
      "SpacingBetweenSlices": 1.9000000206417,
      "SpecificCharacterSet": "ISO_IR 100",
      "StudyID": "1",
      "StudyTime": "130301.189000",
      "TimeOfLastCalibration": ["123723.000000", "123723.000000"],
      "TransmitCoilName": "Body",
      "VariableFlipAngleFlag": "N",
      "WindowCenterWidthExplanation": "Algo1",
      "dBdt": 0.0},
    "slices": {}
  },
  "time": {
    "samples": {
      "AcquisitionNumber": [1, 2, 3, 4, 5, 6, 7, 8, 9, 10, 11, 12, 13, 14, 15, 16, 17, 18, 19, 20, 21, 22, 23, 24, 25, 26, 27, 28, 29, 30, 31, 32, 33, 34, 35, 36, 37, 38, 39, 40, 41, 42, 43, 44, 45, 46, 47, 48, 49, 50, 51, 52, 53, 54, 55, 56, 57, 58, 59, 60, 61, 62, 63, 64, 65, 66, 67, 68, 69, 70, 71, 72, 73, 74, 75, 76, 77, 78, 79, 80, 81, 82, 83, 84, 85, 86, 87, 88, 89, 90, 91, 92, 93, 94, 95, 96, 97, 98, 99, 100, 101, 102, 103, 104, 105, 106, 107, 108, 109, 110, 111, 112, 113, 114, 115, 116, 117, 118, 119, 120, 121, 122, 123, 124, 125, 126, 127, 128, 129, 130, 131, 132, 133, 134, 135, 136, 137, 138, 139, 140, 141, 142, 143, 144, 145, 146, 147, 148, 149, 150, 151, 152, 153, 154, 155, 156, 157, 158, 159, 160, 161, 162, 163, 164, 165, 166, 167, 168, 169, 170, 171, 172, 173, 174, 175, 176, 177, 178, 179, 180, 181, 182, 183, 184, 185, 186, 187, 188, 189, 190, 191, 192, 193, 194, 195, 196, 197, 198, 199, 200, 201, 202, 203, 204, 205, 206, 207, 208, 209, 210, 211, 212, 213, 214, 215, 216, 217, 218, 219, 220, 221, 222, 223, 224, 225, 226, 227, 228, 229, 230, 231, 232, 233, 234, 235, 236, 237, 238, 239, 240, 241, 242, 243, 244, 245, 246, 247, 248, 249, 250, 251, 252, 253, 254, 255, 256, 257, 258, 259, 260, 261, 262, 263, 264, 265, 266, 267, 268, 269, 270, 271, 272, 273, 274, 275, 276, 277, 278, 279, 280, 281, 282, 283, 284, 285, 286, 287, 288, 289],
      "AcquisitionTime": ["133540.567500", "133542.567500", "133544.567500", "133546.567500", "133548.567500", "133550.567500", "133552.567500", "133554.567500", "133556.567500", "133558.567500", "133600.567500", "133602.567500", "133604.567500", "133606.567500", "133608.567500", "133610.567500", "133612.567500", "133614.567500", "133616.567500", "133618.567500", "133620.567500", "133622.567500", "133624.567500", "133626.567500", "133628.567500", "133630.567500", "133632.567500", "133634.567500", "133636.567500", "133638.567500", "133640.567500", "133642.567500", "133644.567500", "133646.567500", "133648.567500", "133650.567500", "133652.567500", "133654.567500", "133656.567500", "133658.567500", "133700.567500", "133702.567500", "133704.567500", "133706.567500", "133708.567500", "133710.567500", "133712.567500", "133714.567500", "133716.567500", "133718.567500", "133720.567500", "133722.567500", "133724.567500", "133726.567500", "133728.567500", "133730.567500", "133732.567500", "133734.567500", "133736.567500", "133738.567500", "133740.567500", "133742.567500", "133744.567500", "133746.567500", "133748.567500", "133750.567500", "133752.567500", "133754.567500", "133756.567500", "133758.567500", "133800.567500", "133802.567500", "133804.567500", "133806.567500", "133808.567500", "133810.567500", "133812.567500", "133814.567500", "133816.567500", "133818.567500", "133820.567500", "133822.567500", "133824.567500", "133826.567500", "133828.567500", "133830.567500", "133832.567500", "133834.567500", "133836.567500", "133838.567500", "133840.567500", "133842.567500", "133844.567500", "133846.567500", "133848.567500", "133850.567500", "133852.567500", "133854.567500", "133856.567500", "133858.567500", "133900.567500", "133902.567500", "133904.567500", "133906.567500", "133908.567500", "133910.567500", "133912.567500", "133914.567500", "133916.567500", "133918.567500", "133920.567500", "133922.567500", "133924.567500", "133926.567500", "133928.567500", "133930.567500", "133932.567500", "133934.567500", "133936.567500", "133938.567500", "133940.567500", "133942.567500", "133944.567500", "133946.567500", "133948.567500", "133950.567500", "133952.567500", "133954.567500", "133956.567500", "133958.567500", "134000.567500", "134002.567500", "134004.567500", "134006.567500", "134008.567500", "134010.567500", "134012.567500", "134014.567500", "134016.567500", "134018.567500", "134020.567500", "134022.567500", "134024.567500", "134026.567500", "134028.570000", "134030.570000", "134032.570000", "134034.570000", "134036.570000", "134038.570000", "134040.570000", "134042.570000", "134044.570000", "134046.570000", "134048.570000", "134050.570000", "134052.570000", "134054.570000", "134056.570000", "134058.570000", "134100.570000", "134102.570000", "134104.570000", "134106.570000", "134108.570000", "134110.570000", "134112.570000", "134114.570000", "134116.570000", "134118.570000", "134120.570000", "134122.570000", "134124.570000", "134126.570000", "134128.570000", "134130.570000", "134132.570000", "134134.570000", "134136.570000", "134138.570000", "134140.570000", "134142.570000", "134144.570000", "134146.570000", "134148.570000", "134150.570000", "134152.570000", "134154.570000", "134156.570000", "134158.570000", "134200.570000", "134202.570000", "134204.570000", "134206.570000", "134208.570000", "134210.570000", "134212.570000", "134214.570000", "134216.570000", "134218.570000", "134220.570000", "134222.570000", "134224.570000", "134226.570000", "134228.570000", "134230.570000", "134232.570000", "134234.570000", "134236.570000", "134238.570000", "134240.570000", "134242.570000", "134244.570000", "134246.570000", "134248.570000", "134250.570000", "134252.570000", "134254.570000", "134256.570000", "134258.570000", "134300.570000", "134302.570000", "134304.570000", "134306.570000", "134308.570000", "134310.570000", "134312.570000", "134314.570000", "134316.570000", "134318.570000", "134320.570000", "134322.570000", "134324.570000", "134326.570000", "134328.570000", "134330.570000", "134332.570000", "134334.570000", "134336.570000", "134338.570000", "134340.570000", "134342.570000", "134344.570000", "134346.570000", "134348.570000", "134350.570000", "134352.570000", "134354.570000", "134356.570000", "134358.570000", "134400.570000", "134402.570000", "134404.570000", "134406.570000", "134408.570000", "134410.570000", "134412.570000", "134414.570000", "134416.570000", "134418.570000", "134420.570000", "134422.570000", "134424.570000", "134426.570000", "134428.570000", "134430.570000", "134432.570000", "134434.570000", "134436.570000", "134438.570000", "134440.570000", "134442.570000", "134444.570000", "134446.570000", "134448.570000", "134450.570000", "134452.570000", "134454.570000", "134456.570000", "134458.570000", "134500.570000", "134502.570000", "134504.570000", "134506.570000", "134508.570000", "134510.570000", "134512.570000", "134514.570000", "134516.570000"],
      "ContentTime": ["133552.352000", "133553.345000", "133553.350000", "133554.345000", "133554.349000", "133555.346000", "133555.350000", "133557.346000", "133559.347000", "133601.347000", "133603.347000", "133605.347000", "133607.347000", "133609.345000", "133611.346000", "133613.346000", "133615.347000", "133617.347000", "133619.346000", "133621.347000", "133623.347000", "133625.347000", "133627.344000", "133629.346000", "133631.346000", "133633.348000", "133635.348000", "133637.347000", "133639.347000", "133641.347000", "133643.347000", "133645.346000", "133647.346000", "133649.345000", "133651.347000", "133653.347000", "133655.347000", "133657.347000", "133659.347000", "133701.346000", "133703.346000", "133705.346000", "133707.347000", "133709.347000", "133711.347000", "133713.347000", "133715.347000", "133717.347000", "133719.345000", "133721.346000", "133723.346000", "133725.347000", "133727.347000", "133729.347000", "133731.347000", "133733.347000", "133735.347000", "133737.346000", "133739.346000", "133741.346000", "133743.347000", "133745.347000", "133747.348000", "133749.347000", "133751.347000", "133753.346000", "133755.346000", "133757.346000", "133759.347000", "133801.347000", "133803.347000", "133805.347000", "133807.346000", "133809.347000", "133811.346000", "133813.346000", "133815.346000", "133817.347000", "133819.347000", "133821.347000", "133823.347000", "133825.347000", "133827.348000", "133829.346000", "133831.346000", "133833.346000", "133835.347000", "133837.347000", "133839.347000", "133841.347000", "133843.347000", "133845.347000", "133847.346000", "133849.345000", "133851.346000", "133853.347000", "133855.346000", "133857.346000", "133859.347000", "133901.347000", "133903.347000", "133905.346000", "133907.346000", "133909.346000", "133911.347000", "133913.347000", "133915.348000", "133917.347000", "133919.347000", "133921.346000", "133923.347000", "133925.346000", "133927.347000", "133929.347000", "133931.347000", "133933.347000", "133935.347000", "133937.347000", "133939.346000", "133941.346000", "133943.346000", "133945.347000", "133947.345000", "133949.347000", "133951.347000", "133953.347000", "133955.347000", "133957.346000", "133959.346000", "134001.346000", "134003.347000", "134005.347000", "134007.347000", "134009.347000", "134011.347000", "134013.347000", "134015.346000", "134017.345000", "134019.346000", "134021.347000", "134023.347000", "134025.347000", "134027.347000", "134029.358000", "134031.346000", "134033.346000", "134035.346000", "134037.349000", "134039.348000", "134041.350000", "134043.347000", "134045.347000", "134047.347000", "134049.346000", "134051.346000", "134053.346000", "134055.347000", "134057.347000", "134059.347000", "134101.346000", "134103.347000", "134105.347000", "134107.346000", "134109.347000", "134111.346000", "134113.347000", "134115.347000", "134117.347000", "134119.347000", "134121.347000", "134123.348000", "134125.346000", "134127.346000", "134129.346000", "134131.347000", "134133.347000", "134135.347000", "134137.347000", "134139.348000", "134141.346000", "134143.346000", "134145.345000", "134147.347000", "134149.347000", "134151.347000", "134153.347000", "134155.347000", "134157.346000", "134159.346000", "134201.346000", "134203.347000", "134205.347000", "134207.347000", "134209.347000", "134211.347000", "134213.347000", "134215.347000", "134217.365000", "134219.346000", "134221.346000", "134223.347000", "134225.347000", "134227.347000", "134229.347000", "134231.348000", "134233.347000", "134235.346000", "134237.346000", "134239.346000", "134241.347000", "134243.347000", "134245.347000", "134247.347000", "134249.347000", "134251.346000", "134253.347000", "134255.346000", "134257.347000", "134259.347000", "134301.347000", "134303.347000", "134305.346000", "134307.346000", "134309.346000", "134311.345000", "134313.346000", "134315.347000", "134317.346000", "134319.347000", "134321.347000", "134323.347000", "134325.347000", "134327.346000", "134329.346000", "134331.346000", "134333.347000", "134335.347000", "134337.347000", "134339.346000", "134341.347000", "134343.346000", "134345.346000", "134347.346000", "134349.347000", "134351.347000", "134353.347000", "134355.347000", "134357.347000", "134359.348000", "134401.346000", "134403.346000", "134405.346000", "134407.347000", "134409.347000", "134411.347000", "134413.348000", "134415.346000", "134417.347000", "134419.346000", "134421.346000", "134423.346000", "134425.347000", "134427.347000", "134429.347000", "134431.347000", "134433.347000", "134435.347000", "134437.346000", "134439.346000", "134441.346000", "134443.347000", "134445.347000", "134447.347000", "134449.348000", "134451.347000", "134453.346000", "134455.346000", "134457.346000", "134459.346000", "134501.347000", "134503.347000", "134505.347000", "134507.347000", "134509.347000", "134511.346000", "134513.346000", "134515.345000", "134517.347000", "134518.930000"],
      "InstanceCreationTime": ["133552.352000", "133553.345000", "133553.350000", "133554.345000", "133554.349000", "133555.346000", "133555.350000", "133557.346000", "133559.347000", "133601.347000", "133603.347000", "133605.347000", "133607.347000", "133609.345000", "133611.346000", "133613.346000", "133615.347000", "133617.347000", "133619.346000", "133621.347000", "133623.347000", "133625.347000", "133627.344000", "133629.346000", "133631.346000", "133633.348000", "133635.348000", "133637.347000", "133639.347000", "133641.347000", "133643.347000", "133645.346000", "133647.346000", "133649.345000", "133651.347000", "133653.347000", "133655.347000", "133657.347000", "133659.347000", "133701.346000", "133703.346000", "133705.346000", "133707.347000", "133709.347000", "133711.347000", "133713.347000", "133715.347000", "133717.347000", "133719.345000", "133721.346000", "133723.346000", "133725.347000", "133727.347000", "133729.347000", "133731.347000", "133733.347000", "133735.347000", "133737.346000", "133739.346000", "133741.346000", "133743.347000", "133745.347000", "133747.348000", "133749.347000", "133751.347000", "133753.346000", "133755.346000", "133757.346000", "133759.347000", "133801.347000", "133803.347000", "133805.347000", "133807.346000", "133809.347000", "133811.346000", "133813.346000", "133815.346000", "133817.347000", "133819.347000", "133821.347000", "133823.347000", "133825.347000", "133827.348000", "133829.346000", "133831.346000", "133833.346000", "133835.347000", "133837.347000", "133839.347000", "133841.347000", "133843.347000", "133845.347000", "133847.346000", "133849.345000", "133851.346000", "133853.347000", "133855.346000", "133857.346000", "133859.347000", "133901.347000", "133903.347000", "133905.346000", "133907.346000", "133909.346000", "133911.347000", "133913.347000", "133915.348000", "133917.347000", "133919.347000", "133921.346000", "133923.347000", "133925.346000", "133927.347000", "133929.347000", "133931.347000", "133933.347000", "133935.347000", "133937.347000", "133939.346000", "133941.346000", "133943.346000", "133945.347000", "133947.345000", "133949.347000", "133951.347000", "133953.347000", "133955.347000", "133957.346000", "133959.346000", "134001.346000", "134003.347000", "134005.347000", "134007.347000", "134009.347000", "134011.347000", "134013.347000", "134015.346000", "134017.345000", "134019.346000", "134021.347000", "134023.347000", "134025.347000", "134027.347000", "134029.358000", "134031.346000", "134033.346000", "134035.346000", "134037.349000", "134039.348000", "134041.350000", "134043.347000", "134045.347000", "134047.347000", "134049.346000", "134051.346000", "134053.346000", "134055.347000", "134057.347000", "134059.347000", "134101.346000", "134103.347000", "134105.347000", "134107.346000", "134109.347000", "134111.346000", "134113.347000", "134115.347000", "134117.347000", "134119.347000", "134121.347000", "134123.348000", "134125.346000", "134127.346000", "134129.346000", "134131.347000", "134133.347000", "134135.347000", "134137.347000", "134139.348000", "134141.346000", "134143.346000", "134145.345000", "134147.347000", "134149.347000", "134151.347000", "134153.347000", "134155.347000", "134157.346000", "134159.346000", "134201.346000", "134203.347000", "134205.347000", "134207.347000", "134209.347000", "134211.347000", "134213.347000", "134215.347000", "134217.365000", "134219.346000", "134221.346000", "134223.347000", "134225.347000", "134227.347000", "134229.347000", "134231.348000", "134233.347000", "134235.346000", "134237.346000", "134239.346000", "134241.347000", "134243.347000", "134245.347000", "134247.347000", "134249.347000", "134251.346000", "134253.347000", "134255.346000", "134257.347000", "134259.347000", "134301.347000", "134303.347000", "134305.346000", "134307.346000", "134309.346000", "134311.345000", "134313.346000", "134315.347000", "134317.346000", "134319.347000", "134321.347000", "134323.347000", "134325.347000", "134327.346000", "134329.346000", "134331.346000", "134333.347000", "134335.347000", "134337.347000", "134339.346000", "134341.347000", "134343.346000", "134345.346000", "134347.346000", "134349.347000", "134351.347000", "134353.347000", "134355.347000", "134357.347000", "134359.348000", "134401.346000", "134403.346000", "134405.346000", "134407.347000", "134409.347000", "134411.347000", "134413.348000", "134415.346000", "134417.347000", "134419.346000", "134421.346000", "134423.346000", "134425.347000", "134427.347000", "134429.347000", "134431.347000", "134433.347000", "134435.347000", "134437.346000", "134439.346000", "134441.346000", "134443.347000", "134445.347000", "134447.347000", "134449.348000", "134451.347000", "134453.346000", "134455.346000", "134457.346000", "134459.346000", "134501.347000", "134503.347000", "134505.347000", "134507.347000", "134509.347000", "134511.346000", "134513.346000", "134515.345000", "134517.347000", "134518.930000"],
      "InstanceNumber": [1, 2, 3, 4, 5, 6, 7, 8, 9, 10, 11, 12, 13, 14, 15, 16, 17, 18, 19, 20, 21, 22, 23, 24, 25, 26, 27, 28, 29, 30, 31, 32, 33, 34, 35, 36, 37, 38, 39, 40, 41, 42, 43, 44, 45, 46, 47, 48, 49, 50, 51, 52, 53, 54, 55, 56, 57, 58, 59, 60, 61, 62, 63, 64, 65, 66, 67, 68, 69, 70, 71, 72, 73, 74, 75, 76, 77, 78, 79, 80, 81, 82, 83, 84, 85, 86, 87, 88, 89, 90, 91, 92, 93, 94, 95, 96, 97, 98, 99, 100, 101, 102, 103, 104, 105, 106, 107, 108, 109, 110, 111, 112, 113, 114, 115, 116, 117, 118, 119, 120, 121, 122, 123, 124, 125, 126, 127, 128, 129, 130, 131, 132, 133, 134, 135, 136, 137, 138, 139, 140, 141, 142, 143, 144, 145, 146, 147, 148, 149, 150, 151, 152, 153, 154, 155, 156, 157, 158, 159, 160, 161, 162, 163, 164, 165, 166, 167, 168, 169, 170, 171, 172, 173, 174, 175, 176, 177, 178, 179, 180, 181, 182, 183, 184, 185, 186, 187, 188, 189, 190, 191, 192, 193, 194, 195, 196, 197, 198, 199, 200, 201, 202, 203, 204, 205, 206, 207, 208, 209, 210, 211, 212, 213, 214, 215, 216, 217, 218, 219, 220, 221, 222, 223, 224, 225, 226, 227, 228, 229, 230, 231, 232, 233, 234, 235, 236, 237, 238, 239, 240, 241, 242, 243, 244, 245, 246, 247, 248, 249, 250, 251, 252, 253, 254, 255, 256, 257, 258, 259, 260, 261, 262, 263, 264, 265, 266, 267, 268, 269, 270, 271, 272, 273, 274, 275, 276, 277, 278, 279, 280, 281, 282, 283, 284, 285, 286, 287, 288, 289],
      "WindowCenter": [15811.0, 15792.0, 15798.0, 15804.0, 15801.0, 15809.0, 15806.0, 15795.0, 15793.0, 15798.0, 15794.0, 15773.0, 15791.0, 15788.0, 15758.0, 15786.0, 15781.0, 15802.0, 15815.0, 15771.0, 15766.0, 15762.0, 15802.0, 15801.0, 15780.0, 15791.0, 15782.0, 15794.0, 15783.0, 15775.0, 15788.0, 15763.0, 15763.0, 15796.0, 15787.0, 15784.0, 15781.0, 15791.0, 15787.0, 15785.0, 15783.0, 15794.0, 15788.0, 15808.0, 15798.0, 15800.0, 15795.0, 15821.0, 15805.0, 15799.0, 15776.0, 15784.0, 15794.0, 15803.0, 15790.0, 15800.0, 15795.0, 15802.0, 15783.0, 15779.0, 15813.0, 15798.0, 15798.0, 15798.0, 15789.0, 15788.0, 15788.0, 15789.0, 15782.0, 15797.0, 15814.0, 15805.0, 15808.0, 15807.0, 15792.0, 15812.0, 15810.0, 15806.0, 15801.0, 15788.0, 15779.0, 15789.0, 15805.0, 15790.0, 15795.0, 15779.0, 15787.0, 15795.0, 15786.0, 15804.0, 15788.0, 15787.0, 15772.0, 15785.0, 15803.0, 15810.0, 15817.0, 15806.0, 15800.0, 15804.0, 15810.0, 15799.0, 15805.0, 15801.0, 15785.0, 15789.0, 15793.0, 15813.0, 15797.0, 15816.0, 15798.0, 15795.0, 15801.0, 15816.0, 15811.0, 15782.0, 15803.0, 15811.0, 15800.0, 15804.0, 15810.0, 15813.0, 15804.0, 15808.0, 15803.0, 15806.0, 15800.0, 15804.0, 15792.0, 15802.0, 15820.0, 15807.0, 15802.0, 15795.0, 15802.0, 15807.0, 15819.0, 15815.0, 15815.0, 15810.0, 15794.0, 15809.0, 15806.0, 15808.0, 15824.0, 15811.0, 15817.0, 15816.0, 15823.0, 15817.0, 15817.0, 15800.0, 15809.0, 15812.0, 15825.0, 15810.0, 15811.0, 15809.0, 15803.0, 15804.0, 15815.0, 15812.0, 15796.0, 15790.0, 15791.0, 15819.0, 15799.0, 15809.0, 15808.0, 15805.0, 15806.0, 15807.0, 15799.0, 15800.0, 15801.0, 15809.0, 15807.0, 15802.0, 15819.0, 15826.0, 15826.0, 15817.0, 15820.0, 15800.0, 15807.0, 15805.0, 15801.0, 15805.0, 15788.0, 15813.0, 15808.0, 15788.0, 15809.0, 15823.0, 15798.0, 15823.0, 15809.0, 15806.0, 15829.0, 15817.0, 15824.0, 15801.0, 15805.0, 15792.0, 15816.0, 15829.0, 15832.0, 15808.0, 15820.0, 15817.0, 15792.0, 15786.0, 15798.0, 15815.0, 15813.0, 15813.0, 15801.0, 15822.0, 15798.0, 15799.0, 15807.0, 15796.0, 15800.0, 15791.0, 15811.0, 15814.0, 15832.0, 15828.0, 15805.0, 15790.0, 15803.0, 15793.0, 15802.0, 15800.0, 15797.0, 15812.0, 15801.0, 15825.0, 15828.0, 15823.0, 15800.0, 15798.0, 15791.0, 15796.0, 15829.0, 15825.0, 15836.0, 15826.0, 15818.0, 15815.0, 15810.0, 15811.0, 15795.0, 15821.0, 15803.0, 15814.0, 15812.0, 15810.0, 15807.0, 15792.0, 15802.0, 15797.0, 15826.0, 15798.0, 15793.0, 15784.0, 15792.0, 15799.0, 15797.0, 15798.0, 15802.0, 15793.0, 15794.0, 15804.0, 15788.0, 15805.0, 15807.0, 15793.0, 15770.0, 15775.0, 15788.0, 15802.0, 15811.0, 15780.0, 15789.0, 15785.0, 15795.0, 15801.0, 15816.0],
      "WindowWidth": [46360.0, 46333.0, 46418.0, 46477.0, 46435.0, 46402.0, 46386.0, 46376.0, 46452.0, 46390.0, 46290.0, 46290.0, 46224.0, 46180.0, 46171.0, 46164.0, 46201.0, 46219.0, 46150.0, 46059.0, 46081.0, 46107.0, 46179.0, 46248.0, 46242.0, 46197.0, 46175.0, 46158.0, 46164.0, 46239.0, 46276.0, 46294.0, 46281.0, 46199.0, 46193.0, 46205.0, 46271.0, 46304.0, 46261.0, 46247.0, 46245.0, 46321.0, 46371.0, 46294.0, 46287.0, 46312.0, 46225.0, 46194.0, 46170.0, 46111.0, 46160.0, 46124.0, 46078.0, 46059.0, 46117.0, 46153.0, 46227.0, 46177.0, 46123.0, 46243.0, 46310.0, 46230.0, 46202.0, 46176.0, 46156.0, 46207.0, 46248.0, 46262.0, 46285.0, 46310.0, 46271.0, 46221.0, 46156.0, 46118.0, 46202.0, 46230.0, 46212.0, 46236.0, 46244.0, 46222.0, 46216.0, 46265.0, 46236.0, 46238.0, 46269.0, 46309.0, 46274.0, 46228.0, 46249.0, 46261.0, 46289.0, 46288.0, 46330.0, 46395.0, 46367.0, 46363.0, 46353.0, 46303.0, 46259.0, 46196.0, 46157.0, 46177.0, 46238.0, 46301.0, 46287.0, 46262.0, 46265.0, 46296.0, 46323.0, 46324.0, 46310.0, 46227.0, 46246.0, 46245.0, 46239.0, 46310.0, 46328.0, 46280.0, 46259.0, 46343.0, 46376.0, 46336.0, 46300.0, 46265.0, 46218.0, 46195.0, 46217.0, 46275.0, 46319.0, 46354.0, 46287.0, 46264.0, 46247.0, 46295.0, 46355.0, 46344.0, 46314.0, 46365.0, 46365.0, 46307.0, 46348.0, 46333.0, 46302.0, 46319.0, 46360.0, 46389.0, 46352.0, 46296.0, 46302.0, 46311.0, 46257.0, 46271.0, 46294.0, 46375.0, 46370.0, 46332.0, 46307.0, 46333.0, 46370.0, 46380.0, 46321.0, 46279.0, 46239.0, 46236.0, 46371.0, 46341.0, 46256.0, 46253.0, 46349.0, 46400.0, 46343.0, 46237.0, 46217.0, 46275.0, 46288.0, 46239.0, 46198.0, 46235.0, 46274.0, 46349.0, 46334.0, 46313.0, 46288.0, 46285.0, 46304.0, 46382.0, 46339.0, 46249.0, 46236.0, 46200.0, 46143.0, 46223.0, 46321.0, 46332.0, 46350.0, 46290.0, 46279.0, 46346.0, 46405.0, 46516.0, 46506.0, 46339.0, 46288.0, 46321.0, 46341.0, 46349.0, 46243.0, 46172.0, 46154.0, 46218.0, 46291.0, 46311.0, 46295.0, 46201.0, 46160.0, 46204.0, 46247.0, 46274.0, 46271.0, 46283.0, 46263.0, 46281.0, 46259.0, 46280.0, 46443.0, 46472.0, 46406.0, 46296.0, 46114.0, 46022.0, 46086.0, 46106.0, 46086.0, 46152.0, 46258.0, 46312.0, 46355.0, 46332.0, 46307.0, 46208.0, 46191.0, 46230.0, 46304.0, 46376.0, 46349.0, 46373.0, 46343.0, 46363.0, 46410.0, 46339.0, 46239.0, 46241.0, 46392.0, 46424.0, 46424.0, 46418.0, 46402.0, 46387.0, 46304.0, 46238.0, 46192.0, 46243.0, 46263.0, 46243.0, 46183.0, 46219.0, 46305.0, 46270.0, 46241.0, 46257.0, 46283.0, 46211.0, 46144.0, 46125.0, 46126.0, 46196.0, 46222.0, 46197.0, 46245.0, 46248.0, 46192.0, 46245.0, 46252.0, 46279.0, 46248.0, 46232.0, 46227.0, 46341.0, 46367.0]
    },
    "slices": {}
  }
}