{
  "AcquisitionMatrixPE": 116,
  "AcquisitionNumber": 1,
  "AcquisitionTime": "11:19:18.710000",
  "BandwidthPerPixelPhaseEncode": 18.539,
  "BaseResolution": 116,
  "BodyPartExamined": "HEAD",
  "ConsistencyInfo": "N4_VD13D_LATEST_20130810",
  "ConversionSoftware": "dcm2niix",
  "ConversionSoftwareVersion": "v1.0.20190410  (JP2:OpenJPEG) (JP-LS:CharLS) GCC5.5.0",
  "DerivedVendorReportedEchoSpacing": 0.000930006,
  "DeviceSerialNumber": "66014",
  "DwellTime": 3e-06,
  "EchoTime": 0.03,
  "EchoTrainLength": 50,
  "EffectiveEchoSpacing": 0.000465003,
  "FlipAngle": 81,
  "ImageComments": "Unaliased_MB3_PE4",
  "ImageOrientationPatientDICOM": [0.99665, 0.0808215, 0.0125499, -0.0801885, 0.995779, -0.0446607],
  "ImageType": [
    "ORIGINAL",
    "PRIMARY",
    "M",
    "MB",
    "ND",
    "MOSAIC"
],
  "ImagingFrequency": 123.261,
  "InPlanePhaseEncodingDirectionDICOM": "COL",
  "InstitutionAddress": "Yiheyuan_Road_5_Beijing_Haidian_CN_100871",
  "InstitutionName": "Peking_Univeristy",
  "InstitutionalDepartmentName": "Department",
  "MRAcquisitionType": "2D",
  "MagneticFieldStrength": 3,
  "Manufacturer": "Siemens",
  "ManufacturersModelName": "Prisma",
  "Modality": "MR",
  "MultibandAccelerationFactor": 3,
  "ParallelReductionFactorInPlane": 2,
  "PartialFourier": 0.875,
  "PatientPosition": "HFS",
  "PercentPhaseFOV": 100,
  "PhaseEncodingDirection": "j-",
  "PhaseEncodingSteps": 101,
  "PhaseResolution": 1,
  "PixelBandwidth": 1435,
  "ProcedureStepDescription": "Research_Projects_64CH",
  "ProtocolName": "mbep2d_bold_MB3_learn2",
  "PulseSequenceDetails": "%CustomerSeq%_cmrr_mbep2d_bold",
  "ReceiveCoilActiveElements": "HC1-6",
  "ReceiveCoilName": "HeadNeck_64",
  "ReconMatrixPE": 116,
  "RefLinesPE": 44,
  "RepetitionTime": 2,
  "SAR": 0.0623041,
  "ScanOptions": "PFP_FS",
  "ScanningSequence": "EP",
  "SequenceName": "epfid2d1_116",
  "SequenceVariant": "SK_SS",
  "SeriesDescription": "mbep2d_bold_MB3_learn2",
  "SeriesNumber": 7,
  "ShimSetting": [-3454, -2113, -1956, 318, -42, -367, -57, -20],
  "SliceThickness": 1.9,
  "SliceTiming": [0, 0.9075, 1.815, 0.7425, 1.65, 0.5775, 1.485, 0.4125, 1.32, 0.2475, 1.155, 0.0825, 0.99, 1.8975, 0.825, 1.7325, 0.66, 1.5675, 0.495, 1.4025, 0.33, 1.2375, 0.165, 1.0725, 0, 0.9075, 1.815, 0.7425, 1.65, 0.5775, 1.485, 0.4125, 1.32, 0.2475, 1.155, 0.0825, 0.99, 1.8975, 0.825, 1.7325, 0.66, 1.5675, 0.495, 1.4025, 0.33, 1.2375, 0.165, 1.0725, 0, 0.9075, 1.815, 0.7425, 1.65, 0.5775, 1.485, 0.4125, 1.32, 0.2475, 1.155, 0.0825, 0.99, 1.8975, 0.825, 1.7325, 0.66, 1.5675, 0.495, 1.4025, 0.33, 1.2375, 0.165, 1.0725],
  "SoftwareVersions": "syngo_MR_D13D",
  "SpacingBetweenSlices": 1.9,
  "StationName": "AWP66014",
  "TaskName": "updating",
  "TotalReadoutTime": 0.0534753,
  "TxRefAmp": 226.519,
  "WipMemBlock": "b3e4485c-2dd9-4699-a107-15a8f6fe9e84||Sequence: vd13d/master r/0735857; Nov 19 2014 09:21:40 by eja",
  "dcmmeta_affine": [
    [-1.890197515487671, -0.1520816832780838, 0.03060225024819374, 117.34014892578125],
    [-0.15328218042850494, 1.8885458707809448, -0.08265901356935501, -83.5027847290039],
    [0.023801490664482117, 0.08470139652490616, 1.8979543447494507, -63.002593994140625],
    [0.0, 0.0, 0.0, 1.0]
],
  "dcmmeta_reorient_transform": [
    [0.0, -1.0, 0.0, 115.0],
    [1.0, 0.0, 0.0, 0.0],
    [0.0, 0.0, 1.0, 0.0],
    [0.0, 0.0, 0.0, 1.0]
],
  "dcmmeta_shape": [116, 116, 72, 218],
  "dcmmeta_slice_dim": 2,
  "dcmmeta_version": 0.6,
  "global": {
    "const": {
      "AcquisitionMatrix": [116, 0, 0, 116],
      "AngioFlag": "N",
      "BitsAllocated": 16,
      "BitsStored": 16,
      "BodyPartExamined": "HEAD",
      "Columns": 1044,
      "EchoNumbers": 1,
      "EchoTime": 30.0,
      "EchoTrainLength": 50,
      "FlipAngle": 81.0,
      "HighBit": 15,
      "ImageOrientationPatient": [0.99664957898998, 0.08082151503105, 0.01254987677966, -0.0801885217677, 0.99577870016796, -0.044660735199],
      "ImagePositionPatient": [-906.33648839434, -1081.0881731056, -25.004378513895],
      "ImageType": [
        "ORIGINAL",
        "PRIMARY",
        "M",
        "MB",
        "ND",
        "MOSAIC"
],
      "ImagedNucleus": "1H",
      "ImagingFrequency": 123.260531,
      "InPlanePhaseEncodingDirection": "COL",
      "LargestImagePixelValue": 65535,
      "MRAcquisitionType": "2D",
      "MagneticFieldStrength": 3.0,
      "Manufacturer": "SIEMENS",
      "ManufacturerModelName": "Prisma",
      "Modality": "MR",
      "NumberOfAverages": 1.0,
      "NumberOfPhaseEncodingSteps": 101,
      "PercentPhaseFieldOfView": 100.0,
      "PercentSampling": 100.0,
      "PerformedProcedureStepStartTime": "104824.082000",
      "PhotometricInterpretation": "MONOCHROME2",
      "PixelBandwidth": 1435.0,
      "PixelRepresentation": 0,
      "PixelSpacing": [1.8965517282486, 1.8965517282486],
      "ProtocolName": "mbep2d_bold_MB3_learn2",
      "RepetitionTime": 2000.0,
      "Rows": 1044,
      "SAR": 0.06230414667253,
      "SamplesPerPixel": 1,
      "ScanOptions": [
        "PFP",
        "FS"
],
      "ScanningSequence": "EP",
      "SequenceName": "epfid2d1_116",
      "SequenceVariant": [
        "SK",
        "SS"
],
      "SeriesDescription": "mbep2d_bold_MB3_learn2",
      "SeriesNumber": 7,
      "SeriesTime": "111930.432000",
      "SliceLocation": -57.412063849716,
      "SliceThickness": 1.8999999761581,
      "SmallestImagePixelValue": 0,
      "SoftwareVersions": "syngo MR D13D",
      "SpacingBetweenSlices": 1.8999999546958,
      "SpecificCharacterSet": "ISO_IR 100",
      "StudyID": "1",
      "StudyTime": "104823.986000",
      "TimeOfLastCalibration": ["123723.000000", "123723.000000"],
      "TransmitCoilName": "Body",
      "VariableFlipAngleFlag": "N",
      "WindowCenterWidthExplanation": "Algo1",
      "dBdt": 0.0},
    "slices": {}
  },
  "time": {
    "samples": {
      "AcquisitionNumber": [1, 2, 3, 4, 5, 6, 7, 8, 9, 10, 11, 12, 13, 14, 15, 16, 17, 18, 19, 20, 21, 22, 23, 24, 25, 26, 27, 28, 29, 30, 31, 32, 33, 34, 35, 36, 37, 38, 39, 40, 41, 42, 43, 44, 45, 46, 47, 48, 49, 50, 51, 52, 53, 54, 55, 56, 57, 58, 59, 60, 61, 62, 63, 64, 65, 66, 67, 68, 69, 70, 71, 72, 73, 74, 75, 76, 77, 78, 79, 80, 81, 82, 83, 84, 85, 86, 87, 88, 89, 90, 91, 92, 93, 94, 95, 96, 97, 98, 99, 100, 101, 102, 103, 104, 105, 106, 107, 108, 109, 110, 111, 112, 113, 114, 115, 116, 117, 118, 119, 120, 121, 122, 123, 124, 125, 126, 127, 128, 129, 130, 131, 132, 133, 134, 135, 136, 137, 138, 139, 140, 141, 142, 143, 144, 145, 146, 147, 148, 149, 150, 151, 152, 153, 154, 155, 156, 157, 158, 159, 160, 161, 162, 163, 164, 165, 166, 167, 168, 169, 170, 171, 172, 173, 174, 175, 176, 177, 178, 179, 180, 181, 182, 183, 184, 185, 186, 187, 188, 189, 190, 191, 192, 193, 194, 195, 196, 197, 198, 199, 200, 201, 202, 203, 204, 205, 206, 207, 208, 209, 210, 211, 212, 213, 214, 215, 216, 217, 218],
      "AcquisitionTime": ["111918.710000", "111920.710000", "111922.710000", "111924.710000", "111926.710000", "111928.710000", "111930.710000", "111932.710000", "111934.710000", "111936.710000", "111938.710000", "111940.710000", "111942.710000", "111944.710000", "111946.710000", "111948.710000", "111950.710000", "111952.710000", "111954.710000", "111956.710000", "111958.710000", "112000.710000", "112002.710000", "112004.710000", "112006.710000", "112008.710000", "112010.710000", "112012.710000", "112014.710000", "112016.710000", "112018.710000", "112020.710000", "112022.710000", "112024.710000", "112026.710000", "112028.710000", "112030.710000", "112032.710000", "112034.710000", "112036.710000", "112038.710000", "112040.710000", "112042.710000", "112044.710000", "112046.710000", "112048.710000", "112050.710000", "112052.710000", "112054.710000", "112056.710000", "112058.710000", "112100.710000", "112102.710000", "112104.710000", "112106.710000", "112108.710000", "112110.710000", "112112.710000", "112114.710000", "112116.710000", "112118.710000", "112120.710000", "112122.710000", "112124.710000", "112126.710000", "112128.710000", "112130.710000", "112132.710000", "112134.710000", "112136.710000", "112138.710000", "112140.710000", "112142.710000", "112144.710000", "112146.710000", "112148.710000", "112150.710000", "112152.710000", "112154.710000", "112156.710000", "112158.710000", "112200.710000", "112202.710000", "112204.710000", "112206.710000", "112208.710000", "112210.710000", "112212.710000", "112214.710000", "112216.710000", "112218.710000", "112220.710000", "112222.710000", "112224.710000", "112226.710000", "112228.710000", "112230.710000", "112232.710000", "112234.710000", "112236.710000", "112238.710000", "112240.710000", "112242.710000", "112244.710000", "112246.710000", "112248.710000", "112250.710000", "112252.710000", "112254.710000", "112256.710000", "112258.710000", "112300.710000", "112302.710000", "112304.710000", "112306.710000", "112308.710000", "112310.710000", "112312.710000", "112314.710000", "112316.710000", "112318.710000", "112320.710000", "112322.710000", "112324.710000", "112326.710000", "112328.710000", "112330.710000", "112332.710000", "112334.710000", "112336.710000", "112338.710000", "112340.710000", "112342.710000", "112344.710000", "112346.710000", "112348.710000", "112350.710000", "112352.710000", "112354.710000", "112356.710000", "112358.710000", "112400.710000", "112402.710000", "112404.710000", "112406.710000", "112408.710000", "112410.710000", "112412.710000", "112414.710000", "112416.710000", "112418.710000", "112420.710000", "112422.710000", "112424.710000", "112426.710000", "112428.710000", "112430.710000", "112432.710000", "112434.710000", "112436.710000", "112438.710000", "112440.710000", "112442.710000", "112444.710000", "112446.710000", "112448.710000", "112450.710000", "112452.710000", "112454.710000", "112456.710000", "112458.710000", "112500.710000", "112502.710000", "112504.710000", "112506.710000", "112508.710000", "112510.710000", "112512.712500", "112514.712500", "112516.712500", "112518.712500", "112520.712500", "112522.712500", "112524.712500", "112526.712500", "112528.712500", "112530.712500", "112532.712500", "112534.712500", "112536.712500", "112538.712500", "112540.712500", "112542.712500", "112544.712500", "112546.712500", "112548.712500", "112550.712500", "112552.712500", "112554.712500", "112556.712500", "112558.712500", "112600.712500", "112602.712500", "112604.712500", "112606.712500", "112608.712500", "112610.712500", "112612.712500", "112614.712500", "112616.712500", "112618.712500", "112620.712500", "112622.712500", "112624.712500", "112626.712500", "112628.712500", "112630.712500", "112632.712500"],
      "ContentTime": ["111930.437000", "111931.430000", "111931.434000", "111932.430000", "111932.434000", "111933.932000", "111933.936000", "111935.932000", "111937.932000", "111939.931000", "111941.930000", "111943.930000", "111945.930000", "111947.931000", "111949.931000", "111951.932000", "111953.931000", "111955.931000", "111957.932000", "111959.931000", "112001.931000", "112003.931000", "112005.931000", "112007.931000", "112009.931000", "112011.932000", "112013.933000", "112015.931000", "112017.930000", "112019.932000", "112021.931000", "112023.931000", "112025.932000", "112027.948000", "112029.932000", "112031.933000", "112033.932000", "112035.931000", "112037.931000", "112039.931000", "112041.931000", "112043.931000", "112045.932000", "112047.931000", "112049.932000", "112051.931000", "112053.930000", "112055.930000", "112057.930000", "112059.931000", "112101.932000", "112103.932000", "112105.932000", "112107.932000", "112109.931000", "112111.931000", "112113.931000", "112115.931000", "112117.932000", "112119.932000", "112121.932000", "112123.932000", "112125.933000", "112127.931000", "112129.930000", "112131.931000", "112133.931000", "112135.932000", "112137.931000", "112139.932000", "112141.931000", "112143.932000", "112145.931000", "112147.931000", "112149.931000", "112151.931000", "112153.932000", "112155.932000", "112157.932000", "112159.932000", "112201.931000", "112203.931000", "112205.930000", "112207.931000", "112209.930000", "112211.932000", "112213.931000", "112215.932000", "112217.932000", "112219.931000", "112221.931000", "112223.929000", "112225.931000", "112227.931000", "112229.932000", "112231.931000", "112233.932000", "112235.931000", "112237.931000", "112239.931000", "112241.931000", "112243.931000", "112245.931000", "112247.932000", "112249.932000", "112251.932000", "112253.932000", "112255.931000", "112257.931000", "112259.931000", "112301.931000", "112303.932000", "112305.932000", "112307.933000", "112309.932000", "112311.931000", "112313.931000", "112315.931000", "112317.930000", "112319.930000", "112321.932000", "112323.933000", "112325.932000", "112327.932000", "112329.930000", "112331.930000", "112333.930000", "112335.930000", "112337.930000", "112339.932000", "112341.932000", "112343.932000", "112345.932000", "112347.931000", "112349.931000", "112351.931000", "112353.931000", "112355.932000", "112357.932000", "112359.932000", "112401.932000", "112403.932000", "112405.931000", "112407.931000", "112409.931000", "112411.931000", "112413.932000", "112415.932000", "112417.932000", "112419.932000", "112421.931000", "112423.931000", "112425.931000", "112427.930000", "112429.931000", "112431.932000", "112433.932000", "112435.932000", "112437.932000", "112439.931000", "112441.931000", "112443.931000", "112445.931000", "112447.931000", "112449.932000", "112451.932000", "112453.931000", "112455.931000", "112457.931000", "112459.931000", "112501.931000", "112503.931000", "112505.931000", "112507.932000", "112509.932000", "112511.932000", "112513.932000", "112515.931000", "112517.931000", "112519.931000", "112521.931000", "112523.932000", "112525.932000", "112527.932000", "112529.932000", "112531.931000", "112533.930000", "112535.931000", "112537.931000", "112539.931000", "112541.932000", "112543.932000", "112545.932000", "112547.932000", "112549.931000", "112551.931000", "112553.931000", "112555.931000", "112557.931000", "112559.932000", "112601.932000", "112604.432000", "112605.932000", "112607.931000", "112609.931000", "112611.931000", "112613.931000", "112615.932000", "112617.932000", "112619.940000", "112621.932000", "112623.931000", "112625.931000", "112627.931000", "112629.931000", "112631.931000", "112633.932000", "112635.535000"],
      "InstanceCreationTime": ["111930.437000", "111931.430000", "111931.434000", "111932.430000", "111932.434000", "111933.932000", "111933.936000", "111935.932000", "111937.932000", "111939.931000", "111941.930000", "111943.930000", "111945.930000", "111947.931000", "111949.931000", "111951.932000", "111953.931000", "111955.931000", "111957.932000", "111959.931000", "112001.931000", "112003.931000", "112005.931000", "112007.931000", "112009.931000", "112011.932000", "112013.933000", "112015.931000", "112017.930000", "112019.932000", "112021.931000", "112023.931000", "112025.932000", "112027.948000", "112029.932000", "112031.933000", "112033.932000", "112035.931000", "112037.931000", "112039.931000", "112041.931000", "112043.931000", "112045.932000", "112047.931000", "112049.932000", "112051.931000", "112053.930000", "112055.930000", "112057.930000", "112059.931000", "112101.932000", "112103.932000", "112105.932000", "112107.932000", "112109.931000", "112111.931000", "112113.931000", "112115.931000", "112117.932000", "112119.932000", "112121.932000", "112123.932000", "112125.933000", "112127.931000", "112129.930000", "112131.931000", "112133.931000", "112135.932000", "112137.931000", "112139.932000", "112141.931000", "112143.932000", "112145.931000", "112147.931000", "112149.931000", "112151.931000", "112153.932000", "112155.932000", "112157.932000", "112159.932000", "112201.931000", "112203.931000", "112205.930000", "112207.931000", "112209.930000", "112211.932000", "112213.931000", "112215.932000", "112217.932000", "112219.931000", "112221.931000", "112223.929000", "112225.931000", "112227.931000", "112229.932000", "112231.931000", "112233.932000", "112235.931000", "112237.931000", "112239.931000", "112241.931000", "112243.931000", "112245.931000", "112247.932000", "112249.932000", "112251.932000", "112253.932000", "112255.931000", "112257.931000", "112259.931000", "112301.931000", "112303.932000", "112305.932000", "112307.933000", "112309.932000", "112311.931000", "112313.931000", "112315.931000", "112317.930000", "112319.930000", "112321.932000", "112323.933000", "112325.932000", "112327.932000", "112329.930000", "112331.930000", "112333.930000", "112335.930000", "112337.930000", "112339.932000", "112341.932000", "112343.932000", "112345.932000", "112347.931000", "112349.931000", "112351.931000", "112353.931000", "112355.932000", "112357.932000", "112359.932000", "112401.932000", "112403.932000", "112405.931000", "112407.931000", "112409.931000", "112411.931000", "112413.932000", "112415.932000", "112417.932000", "112419.932000", "112421.931000", "112423.931000", "112425.931000", "112427.930000", "112429.931000", "112431.932000", "112433.932000", "112435.932000", "112437.932000", "112439.931000", "112441.931000", "112443.931000", "112445.931000", "112447.931000", "112449.932000", "112451.932000", "112453.931000", "112455.931000", "112457.931000", "112459.931000", "112501.931000", "112503.931000", "112505.931000", "112507.932000", "112509.932000", "112511.932000", "112513.932000", "112515.931000", "112517.931000", "112519.931000", "112521.931000", "112523.932000", "112525.932000", "112527.932000", "112529.932000", "112531.931000", "112533.930000", "112535.931000", "112537.931000", "112539.931000", "112541.932000", "112543.932000", "112545.932000", "112547.932000", "112549.931000", "112551.931000", "112553.931000", "112555.931000", "112557.931000", "112559.932000", "112601.932000", "112604.432000", "112605.932000", "112607.931000", "112609.931000", "112611.931000", "112613.931000", "112615.932000", "112617.932000", "112619.940000", "112621.932000", "112623.931000", "112625.931000", "112627.931000", "112629.931000", "112631.931000", "112633.932000", "112635.535000"],
      "InstanceNumber": [1, 2, 3, 4, 5, 6, 7, 8, 9, 10, 11, 12, 13, 14, 15, 16, 17, 18, 19, 20, 21, 22, 23, 24, 25, 26, 27, 28, 29, 30, 31, 32, 33, 34, 35, 36, 37, 38, 39, 40, 41, 42, 43, 44, 45, 46, 47, 48, 49, 50, 51, 52, 53, 54, 55, 56, 57, 58, 59, 60, 61, 62, 63, 64, 65, 66, 67, 68, 69, 70, 71, 72, 73, 74, 75, 76, 77, 78, 79, 80, 81, 82, 83, 84, 85, 86, 87, 88, 89, 90, 91, 92, 93, 94, 95, 96, 97, 98, 99, 100, 101, 102, 103, 104, 105, 106, 107, 108, 109, 110, 111, 112, 113, 114, 115, 116, 117, 118, 119, 120, 121, 122, 123, 124, 125, 126, 127, 128, 129, 130, 131, 132, 133, 134, 135, 136, 137, 138, 139, 140, 141, 142, 143, 144, 145, 146, 147, 148, 149, 150, 151, 152, 153, 154, 155, 156, 157, 158, 159, 160, 161, 162, 163, 164, 165, 166, 167, 168, 169, 170, 171, 172, 173, 174, 175, 176, 177, 178, 179, 180, 181, 182, 183, 184, 185, 186, 187, 188, 189, 190, 191, 192, 193, 194, 195, 196, 197, 198, 199, 200, 201, 202, 203, 204, 205, 206, 207, 208, 209, 210, 211, 212, 213, 214, 215, 216, 217, 218],
      "WindowCenter": [18300.0, 18290.0, 18280.0, 18301.0, 18285.0, 18258.0, 18234.0, 18223.0, 18215.0, 18245.0, 18244.0, 18241.0, 18247.0, 18236.0, 18203.0, 18213.0, 18212.0, 18209.0, 18242.0, 18264.0, 18256.0, 18251.0, 18223.0, 18234.0, 18239.0, 18254.0, 18266.0, 18277.0, 18252.0, 18247.0, 18255.0, 18270.0, 18263.0, 18257.0, 18209.0, 18163.0, 18128.0, 18123.0, 18107.0, 18137.0, 18176.0, 18187.0, 18168.0, 18181.0, 18200.0, 18212.0, 18185.0, 18187.0, 18216.0, 18223.0, 18235.0, 18219.0, 18216.0, 18219.0, 18233.0, 18269.0, 18302.0, 18287.0, 18275.0, 18281.0, 18311.0, 18319.0, 18330.0, 18313.0, 18303.0, 18275.0, 18247.0, 18253.0, 18267.0, 18290.0, 18266.0, 18277.0, 18239.0, 18256.0, 18278.0, 18267.0, 18275.0, 18252.0, 18258.0, 18251.0, 18256.0, 18266.0, 18266.0, 18252.0, 18267.0, 18278.0, 18259.0, 18251.0, 18253.0, 18248.0, 18212.0, 18196.0, 18197.0, 18201.0, 18222.0, 18236.0, 18270.0, 18277.0, 18261.0, 18258.0, 18261.0, 18256.0, 18242.0, 18267.0, 18277.0, 18274.0, 18303.0, 18331.0, 18298.0, 18263.0, 18237.0, 18217.0, 18215.0, 18240.0, 18255.0, 18258.0, 18247.0, 18257.0, 18262.0, 18243.0, 18262.0, 18254.0, 18247.0, 18269.0, 18290.0, 18301.0, 18307.0, 18307.0, 18300.0, 18327.0, 18356.0, 18350.0, 18327.0, 18256.0, 18222.0, 18202.0, 18219.0, 18199.0, 18225.0, 18287.0, 18302.0, 18285.0, 18295.0, 18304.0, 18300.0, 18294.0, 18303.0, 18317.0, 18300.0, 18281.0, 18270.0, 18257.0, 18257.0, 18251.0, 18235.0, 18232.0, 18251.0, 18267.0, 18269.0, 18263.0, 18248.0, 18245.0, 18231.0, 18208.0, 18199.0, 18190.0, 18231.0, 18236.0, 18206.0, 18200.0, 18234.0, 18238.0, 18231.0, 18256.0, 18220.0, 18192.0, 18238.0, 18262.0, 18246.0, 18218.0, 18218.0, 18220.0, 18231.0, 18268.0, 18275.0, 18278.0, 18278.0, 18263.0, 18274.0, 18265.0, 18250.0, 18247.0, 18258.0, 18211.0, 18171.0, 18161.0, 18173.0, 18188.0, 18197.0, 18188.0, 18193.0, 18216.0, 18207.0, 18216.0, 18209.0, 18205.0, 18229.0, 18265.0, 18279.0, 18280.0, 18274.0, 18265.0, 18265.0, 18262.0, 18259.0, 18270.0, 18272.0, 18307.0],
      "WindowWidth": [47735.0, 47718.0, 47721.0, 47750.0, 47711.0, 47629.0, 47591.0, 47520.0, 47565.0, 47611.0, 47633.0, 47620.0, 47589.0, 47580.0, 47505.0, 47462.0, 47487.0, 47522.0, 47597.0, 47674.0, 47679.0, 47614.0, 47570.0, 47555.0, 47596.0, 47633.0, 47703.0, 47683.0, 47628.0, 47639.0, 47632.0, 47729.0, 47735.0, 47633.0, 47486.0, 47301.0, 47202.0, 47187.0, 47177.0, 47300.0, 47375.0, 47409.0, 47432.0, 47403.0, 47469.0, 47501.0, 47468.0, 47484.0, 47553.0, 47572.0, 47592.0, 47593.0, 47578.0, 47568.0, 47616.0, 47680.0, 47777.0, 47779.0, 47745.0, 47748.0, 47833.0, 47863.0, 47860.0, 47822.0, 47753.0, 47669.0, 47625.0, 47592.0, 47652.0, 47693.0, 47672.0, 47620.0, 47607.0, 47593.0, 47622.0, 47663.0, 47642.0, 47650.0, 47618.0, 47602.0, 47604.0, 47649.0, 47662.0, 47627.0, 47662.0, 47707.0, 47706.0, 47627.0, 47617.0, 47588.0, 47497.0, 47423.0, 47399.0, 47455.0, 47508.0, 47554.0, 47616.0, 47657.0, 47596.0, 47595.0, 47585.0, 47568.0, 47595.0, 47652.0, 47659.0, 47657.0, 47740.0, 47834.0, 47732.0, 47597.0, 47515.0, 47464.0, 47503.0, 47570.0, 47618.0, 47619.0, 47601.0, 47594.0, 47572.0, 47610.0, 47586.0, 47594.0, 47651.0, 47656.0, 47720.0, 47776.0, 47767.0, 47792.0, 47798.0, 47869.0, 47914.0, 47922.0, 47806.0, 47629.0, 47504.0, 47467.0, 47454.0, 47465.0, 47559.0, 47680.0, 47725.0, 47675.0, 47721.0, 47727.0, 47734.0, 47740.0, 47785.0, 47744.0, 47660.0, 47610.0, 47551.0, 47541.0, 47565.0, 47545.0, 47522.0, 47486.0, 47550.0, 47586.0, 47587.0, 47570.0, 47572.0, 47571.0, 47522.0, 47482.0, 47403.0, 47447.0, 47513.0, 47577.0, 47518.0, 47455.0, 47517.0, 47507.0, 47527.0, 47518.0, 47428.0, 47423.0, 47520.0, 47624.0, 47548.0, 47529.0, 47533.0, 47508.0, 47565.0, 47642.0, 47708.0, 47712.0, 47677.0, 47700.0, 47692.0, 47660.0, 47616.0, 47616.0, 47588.0, 47463.0, 47346.0, 47279.0, 47313.0, 47376.0, 47393.0, 47412.0, 47429.0, 47480.0, 47476.0, 47479.0, 47460.0, 47447.0, 47540.0, 47639.0, 47723.0, 47671.0, 47655.0, 47639.0, 47637.0, 47611.0, 47585.0, 47642.0, 47695.0, 47771.0]
    },
    "slices": {}
  }
}