{
  "AcquisitionMatrixPE": 116,
  "AcquisitionNumber": 1,
  "AcquisitionTime": "09:20:45.387500",
  "BandwidthPerPixelPhaseEncode": 18.539,
  "BaseResolution": 116,
  "BodyPartExamined": "HEAD",
  "ConsistencyInfo": "N4_VD13D_LATEST_20130810",
  "ConversionSoftware": "dcm2niix",
  "ConversionSoftwareVersion": "v1.0.20190410  (JP2:OpenJPEG) (JP-LS:CharLS) GCC5.5.0",
  "DerivedVendorReportedEchoSpacing": 0.000930006,
  "DeviceSerialNumber": "66014",
  "DwellTime": 3e-06,
  "EchoTime": 0.03,
  "EchoTrainLength": 50,
  "EffectiveEchoSpacing": 0.000465003,
  "FlipAngle": 81,
  "ImageComments": "Unaliased_MB3_PE4",
  "ImageOrientationPatientDICOM": [0.999074, 0.0411388, 0.0125953, -0.0401269, 0.996587, -0.0721379],
  "ImageType": [
    "ORIGINAL",
    "PRIMARY",
    "M",
    "MB",
    "ND",
    "MOSAIC"
],
  "ImagingFrequency": 123.261,
  "InPlanePhaseEncodingDirectionDICOM": "COL",
  "InstitutionAddress": "Yiheyuan_Road_5_Beijing_Haidian_CN_100871",
  "InstitutionName": "Peking_University",
  "InstitutionalDepartmentName": "Department",
  "MRAcquisitionType": "2D",
  "MagneticFieldStrength": 3,
  "Manufacturer": "Siemens",
  "ManufacturersModelName": "Prisma",
  "Modality": "MR",
  "MultibandAccelerationFactor": 3,
  "ParallelReductionFactorInPlane": 2,
  "PartialFourier": 0.875,
  "PatientPosition": "HFS",
  "PercentPhaseFOV": 100,
  "PhaseEncodingDirection": "j-",
  "PhaseEncodingSteps": 101,
  "PhaseResolution": 1,
  "PixelBandwidth": 1435,
  "ProcedureStepDescription": "Research_Projects_64CH",
  "ProtocolName": "mbep2d_bold_MB3_test2",
  "PulseSequenceDetails": "%CustomerSeq%_cmrr_mbep2d_bold",
  "ReceiveCoilActiveElements": "HC1-7",
  "ReceiveCoilName": "HeadNeck_64",
  "ReconMatrixPE": 116,
  "RefLinesPE": 44,
  "RepetitionTime": 2,
  "SAR": 0.0547135,
  "ScanOptions": "PFP_FS",
  "ScanningSequence": "EP",
  "SequenceName": "epfid2d1_116",
  "SequenceVariant": "SK_SS",
  "SeriesDescription": "mbep2d_bold_MB3_test2",
  "SeriesNumber": 7,
  "ShimSetting": [-3448, -2160, -1961, 226, -13, -415, -33, 43],
  "SliceThickness": 1.9,
  "SliceTiming": [0, 0.9075, 1.815, 0.7425, 1.65, 0.5775, 1.485, 0.4125, 1.32, 0.2475, 1.155, 0.0825, 0.99, 1.8975, 0.825, 1.7325, 0.66, 1.5675, 0.495, 1.4025, 0.33, 1.2375, 0.165, 1.0725, 0, 0.9075, 1.815, 0.7425, 1.65, 0.5775, 1.485, 0.4125, 1.32, 0.2475, 1.155, 0.0825, 0.99, 1.8975, 0.825, 1.7325, 0.66, 1.5675, 0.495, 1.4025, 0.33, 1.2375, 0.165, 1.0725, 0, 0.9075, 1.815, 0.7425, 1.65, 0.5775, 1.485, 0.4125, 1.32, 0.2475, 1.155, 0.0825, 0.99, 1.8975, 0.825, 1.7325, 0.66, 1.5675, 0.495, 1.4025, 0.33, 1.2375, 0.165, 1.0725],
  "SoftwareVersions": "syngo_MR_D13D",
  "SpacingBetweenSlices": 1.9,
  "StationName": "AWP66014",
  "TaskName": "retrieval",
  "TotalReadoutTime": 0.0534753,
  "TxRefAmp": 215.167,
  "WipMemBlock": "0688d274-6785-44aa-aee7-95a9a973688e||Sequence: vd13d/master r/0735857; Nov 19 2014 09:21:40 by eja",
  "dcmmeta_affine": [
    [-1.8947956562042236, -0.0761028304696083, 0.02948802150785923, 112.7520980834961],
    [-0.07802184671163559, 1.890079140663147, -0.13597480952739716, -90.75265502929688],
    [0.023887697607278824, 0.13681325316429138, 1.894898772239685, -68.27082061767578],
    [0.0, 0.0, 0.0, 1.0]
],
  "dcmmeta_reorient_transform": [
    [0.0, -1.0, 0.0, 115.0],
    [1.0, 0.0, 0.0, 0.0],
    [0.0, 0.0, 1.0, 0.0],
    [0.0, 0.0, 0.0, 1.0]
],
  "dcmmeta_shape": [116, 116, 72, 289],
  "dcmmeta_slice_dim": 2,
  "dcmmeta_version": 0.6,
  "global": {
    "const": {
      "AcquisitionMatrix": [116, 0, 0, 116],
      "AngioFlag": "N",
      "BitsAllocated": 16,
      "BitsStored": 16,
      "BodyPartExamined": "HEAD",
      "Columns": 1044,
      "EchoNumbers": 1,
      "EchoTime": 30.0,
      "EchoTrainLength": 50,
      "FlipAngle": 81.0,
      "HighBit": 15,
      "ImageOrientationPatient": [0.99907405007659, 0.04113879062186, 0.01259533126763, -0.0401269450074, 0.99658715219761, -0.0721378982161],
      "ImagePositionPatient": [-947.87372921109, -1039.8052724558, -0.1398375056146],
      "ImageType": [
        "ORIGINAL",
        "PRIMARY",
        "M",
        "MB",
        "ND",
        "MOSAIC"
],
      "ImagedNucleus": "1H",
      "ImagingFrequency": 123.260556,
      "InPlanePhaseEncodingDirection": "COL",
      "LargestImagePixelValue": 65535,
      "MRAcquisitionType": "2D",
      "MagneticFieldStrength": 3.0,
      "Manufacturer": "SIEMENS",
      "ManufacturerModelName": "Prisma",
      "Modality": "MR",
      "NumberOfAverages": 1.0,
      "NumberOfPhaseEncodingSteps": 101,
      "PercentPhaseFieldOfView": 100.0,
      "PercentSampling": 100.0,
      "PerformedProcedureStepStartTime": "085820.558000",
      "PhotometricInterpretation": "MONOCHROME2",
      "PixelBandwidth": 1435.0,
      "PixelRepresentation": 0,
      "PixelSpacing": [1.8965517282486, 1.8965517282486],
      "ProtocolName": "mbep2d_bold_MB3_test2",
      "RepetitionTime": 2000.0,
      "Rows": 1044,
      "SAR": 0.05471354604937,
      "SamplesPerPixel": 1,
      "ScanOptions": [
        "PFP",
        "FS"
],
      "ScanningSequence": "EP",
      "SequenceName": "epfid2d1_116",
      "SequenceVariant": [
        "SK",
        "SS"
],
      "SeriesDescription": "mbep2d_bold_MB3_test2",
      "SeriesNumber": 7,
      "SeriesTime": "092100.504000",
      "SliceLocation": -59.842832915698,
      "SliceThickness": 1.8999999761581,
      "SmallestImagePixelValue": 0,
      "SoftwareVersions": "syngo MR D13D",
      "SpacingBetweenSlices": 1.9000000453816,
      "SpecificCharacterSet": "ISO_IR 100",
      "StudyID": "1",
      "StudyTime": "085820.504000",
      "TimeOfLastCalibration": ["123723.000000", "123723.000000"],
      "TransmitCoilName": "Body",
      "VariableFlipAngleFlag": "N",
      "WindowCenterWidthExplanation": "Algo1",
      "dBdt": 0.0},
    "slices": {}
  },
  "time": {
    "samples": {
      "AcquisitionNumber": [1, 2, 3, 4, 5, 6, 7, 8, 9, 10, 11, 12, 13, 14, 15, 16, 17, 18, 19, 20, 21, 22, 23, 24, 25, 26, 27, 28, 29, 30, 31, 32, 33, 34, 35, 36, 37, 38, 39, 40, 41, 42, 43, 44, 45, 46, 47, 48, 49, 50, 51, 52, 53, 54, 55, 56, 57, 58, 59, 60, 61, 62, 63, 64, 65, 66, 67, 68, 69, 70, 71, 72, 73, 74, 75, 76, 77, 78, 79, 80, 81, 82, 83, 84, 85, 86, 87, 88, 89, 90, 91, 92, 93, 94, 95, 96, 97, 98, 99, 100, 101, 102, 103, 104, 105, 106, 107, 108, 109, 110, 111, 112, 113, 114, 115, 116, 117, 118, 119, 120, 121, 122, 123, 124, 125, 126, 127, 128, 129, 130, 131, 132, 133, 134, 135, 136, 137, 138, 139, 140, 141, 142, 143, 144, 145, 146, 147, 148, 149, 150, 151, 152, 153, 154, 155, 156, 157, 158, 159, 160, 161, 162, 163, 164, 165, 166, 167, 168, 169, 170, 171, 172, 173, 174, 175, 176, 177, 178, 179, 180, 181, 182, 183, 184, 185, 186, 187, 188, 189, 190, 191, 192, 193, 194, 195, 196, 197, 198, 199, 200, 201, 202, 203, 204, 205, 206, 207, 208, 209, 210, 211, 212, 213, 214, 215, 216, 217, 218, 219, 220, 221, 222, 223, 224, 225, 226, 227, 228, 229, 230, 231, 232, 233, 234, 235, 236, 237, 238, 239, 240, 241, 242, 243, 244, 245, 246, 247, 248, 249, 250, 251, 252, 253, 254, 255, 256, 257, 258, 259, 260, 261, 262, 263, 264, 265, 266, 267, 268, 269, 270, 271, 272, 273, 274, 275, 276, 277, 278, 279, 280, 281, 282, 283, 284, 285, 286, 287, 288, 289],
      "AcquisitionTime": ["092045.387500", "092047.387500", "092049.387500", "092051.387500", "092053.387500", "092055.387500", "092057.387500", "092059.387500", "092101.387500", "092103.387500", "092105.387500", "092107.387500", "092109.387500", "092111.387500", "092113.387500", "092115.387500", "092117.387500", "092119.387500", "092121.387500", "092123.387500", "092125.387500", "092127.387500", "092129.387500", "092131.387500", "092133.387500", "092135.387500", "092137.387500", "092139.387500", "092141.387500", "092143.387500", "092145.387500", "092147.387500", "092149.387500", "092151.387500", "092153.387500", "092155.387500", "092157.387500", "092159.387500", "092201.387500", "092203.387500", "092205.387500", "092207.387500", "092209.387500", "092211.387500", "092213.387500", "092215.387500", "092217.387500", "092219.387500", "092221.387500", "092223.387500", "092225.387500", "092227.387500", "092229.387500", "092231.387500", "092233.387500", "092235.387500", "092237.387500", "092239.387500", "092241.387500", "092243.387500", "092245.387500", "092247.387500", "092249.387500", "092251.387500", "092253.387500", "092255.387500", "092257.387500", "092259.387500", "092301.387500", "092303.387500", "092305.387500", "092307.387500", "092309.387500", "092311.387500", "092313.387500", "092315.387500", "092317.387500", "092319.387500", "092321.387500", "092323.387500", "092325.387500", "092327.387500", "092329.387500", "092331.387500", "092333.387500", "092335.387500", "092337.387500", "092339.387500", "092341.387500", "092343.387500", "092345.387500", "092347.387500", "092349.387500", "092351.387500", "092353.387500", "092355.387500", "092357.387500", "092359.387500", "092401.387500", "092403.387500", "092405.387500", "092407.387500", "092409.387500", "092411.390000", "092413.390000", "092415.390000", "092417.390000", "092419.390000", "092421.390000", "092423.390000", "092425.390000", "092427.390000", "092429.390000", "092431.390000", "092433.390000", "092435.390000", "092437.390000", "092439.390000", "092441.390000", "092443.390000", "092445.390000", "092447.390000", "092449.390000", "092451.390000", "092453.390000", "092455.390000", "092457.390000", "092459.390000", "092501.390000", "092503.390000", "092505.390000", "092507.390000", "092509.390000", "092511.390000", "092513.390000", "092515.390000", "092517.390000", "092519.390000", "092521.390000", "092523.390000", "092525.390000", "092527.390000", "092529.390000", "092531.390000", "092533.390000", "092535.390000", "092537.390000", "092539.390000", "092541.390000", "092543.390000", "092545.390000", "092547.390000", "092549.390000", "092551.390000", "092553.390000", "092555.390000", "092557.390000", "092559.390000", "092601.390000", "092603.390000", "092605.390000", "092607.390000", "092609.390000", "092611.390000", "092613.390000", "092615.390000", "092617.390000", "092619.390000", "092621.390000", "092623.390000", "092625.390000", "092627.390000", "092629.390000", "092631.390000", "092633.390000", "092635.390000", "092637.390000", "092639.390000", "092641.390000", "092643.390000", "092645.390000", "092647.390000", "092649.390000", "092651.390000", "092653.390000", "092655.390000", "092657.390000", "092659.390000", "092701.390000", "092703.390000", "092705.390000", "092707.390000", "092709.390000", "092711.390000", "092713.390000", "092715.390000", "092717.390000", "092719.390000", "092721.390000", "092723.390000", "092725.390000", "092727.390000", "092729.390000", "092731.390000", "092733.390000", "092735.390000", "092737.390000", "092739.390000", "092741.390000", "092743.390000", "092745.390000", "092747.390000", "092749.390000", "092751.390000", "092753.390000", "092755.390000", "092757.390000", "092759.390000", "092801.390000", "092803.390000", "092805.390000", "092807.390000", "092809.390000", "092811.390000", "092813.390000", "092815.390000", "092817.390000", "092819.390000", "092821.390000", "092823.390000", "092825.390000", "092827.390000", "092829.390000", "092831.390000", "092833.390000", "092835.390000", "092837.390000", "092839.390000", "092841.390000", "092843.390000", "092845.390000", "092847.390000", "092849.390000", "092851.390000", "092853.390000", "092855.390000", "092857.390000", "092859.390000", "092901.390000", "092903.390000", "092905.390000", "092907.390000", "092909.390000", "092911.390000", "092913.390000", "092915.390000", "092917.390000", "092919.390000", "092921.390000", "092923.390000", "092925.390000", "092927.390000", "092929.390000", "092931.390000", "092933.390000", "092935.390000", "092937.390000", "092939.390000", "092941.390000", "092943.390000", "092945.390000", "092947.390000", "092949.390000", "092951.390000", "092953.390000", "092955.390000", "092957.390000", "092959.390000", "093001.390000", "093003.390000", "093005.390000", "093007.390000", "093009.390000", "093011.390000", "093013.390000", "093015.390000", "093017.390000", "093019.390000", "093021.390000"],
      "ContentTime": ["092100.509000", "092101.502000", "092102.501000", "092102.505000", "092103.500000", "092104.501000", "092104.505000", "092105.502000", "092106.501000", "092107.500000", "092108.501000", "092110.502000", "092112.502000", "092114.502000", "092116.503000", "092118.503000", "092120.503000", "092122.502000", "092124.502000", "092126.502000", "092128.502000", "092130.502000", "092132.502000", "092134.503000", "092136.503000", "092138.502000", "092140.502000", "092142.502000", "092144.503000", "092146.502000", "092148.503000", "092150.502000", "092152.503000", "092154.503000", "092156.501000", "092158.501000", "092200.501000", "092202.500000", "092204.502000", "092206.502000", "092208.502000", "092210.503000", "092212.503000", "092214.502000", "092216.501000", "092218.502000", "092220.502000", "092222.502000", "092224.502000", "092226.501000", "092228.503000", "092230.502000", "092232.502000", "092234.502000", "092236.502000", "092238.502000", "092240.502000", "092242.502000", "092244.503000", "092246.503000", "092248.502000", "092250.501000", "092252.502000", "092254.502000", "092256.502000", "092258.502000", "092300.500000", "092302.503000", "092304.504000", "092306.502000", "092308.503000", "092310.502000", "092312.502000", "092314.502000", "092316.502000", "092318.502000", "092320.503000", "092322.503000", "092324.502000", "092326.502000", "092328.502000", "092330.502000", "092332.502000", "092334.502000", "092336.502000", "092338.503000", "092340.504000", "092342.502000", "092344.503000", "092346.502000", "092348.502000", "092350.502000", "092352.502000", "092354.503000", "092356.503000", "092358.502000", "092400.502000", "092402.502000", "092404.502000", "092406.502000", "092408.502000", "092410.503000", "092412.503000", "092414.503000", "092416.502000", "092418.502000", "092420.503000", "092422.502000", "092424.502000", "092426.502000", "092428.522000", "092430.503000", "092432.504000", "092434.502000", "092436.502000", "092438.502000", "092440.503000", "092442.503000", "092444.502000", "092446.502000", "092448.503000", "092450.503000", "092452.504000", "092454.502000", "092456.502000", "092458.502000", "092500.502000", "092502.502000", "092504.503000", "092506.503000", "092508.502000", "092510.501000", "092512.501000", "092514.502000", "092516.500000", "092518.504000", "092520.503000", "092522.505000", "092524.503000", "092526.502000", "092528.502000", "092530.502000", "092532.502000", "092534.502000", "092536.502000", "092538.502000", "092540.503000", "092542.503000", "092544.502000", "092546.502000", "092548.502000", "092550.501000", "092552.502000", "092554.502000", "092556.502000", "092558.504000", "092600.503000", "092602.502000", "092604.502000", "092606.502000", "092608.502000", "092610.502000", "092612.502000", "092614.503000", "092616.503000", "092618.501000", "092620.502000", "092622.502000", "092624.502000", "092626.503000", "092628.502000", "092630.501000", "092632.504000", "092634.503000", "092636.502000", "092638.502000", "092640.503000", "092642.502000", "092644.502000", "092646.502000", "092648.502000", "092650.503000", "092652.503000", "092654.502000", "092656.502000", "092658.502000", "092700.502000", "092702.502000", "092704.502000", "092706.503000", "092708.503000", "092710.503000", "092712.502000", "092714.501000", "092716.502000", "092718.502000", "092720.503000", "092722.502000", "092724.503000", "092726.503000", "092728.502000", "092730.502000", "092732.502000", "092734.502000", "092736.502000", "092738.502000", "092740.502000", "092742.503000", "092744.503000", "092746.502000", "092748.502000", "092750.502000", "092752.502000", "092754.502000", "092756.503000", "092758.502000", "092800.503000", "092802.503000", "092804.503000", "092806.502000", "092808.502000", "092810.502000", "092812.502000", "092814.502000", "092816.503000", "092818.503000", "092820.502000", "092822.501000", "092824.503000", "092826.502000", "092828.501000", "092830.500000", "092832.502000", "092834.503000", "092836.503000", "092838.502000", "092840.502000", "092842.502000", "092844.502000", "092846.500000", "092848.502000", "092850.502000", "092852.503000", "092854.503000", "092856.503000", "092858.502000", "092900.502000", "092902.502000", "092904.502000", "092906.502000", "092908.502000", "092910.503000", "092912.503000", "092914.502000", "092916.502000", "092918.501000", "092920.502000", "092922.502000", "092924.501000", "092926.502000", "092928.503000", "092930.502000", "092932.503000", "092934.502000", "092936.509000", "092938.502000", "092940.502000", "092942.502000", "092944.503000", "092946.503000", "092948.502000", "092950.502000", "092952.502000", "092954.502000", "092956.502000", "092958.502000", "093000.502000", "093002.503000", "093004.503000", "093006.502000", "093008.502000", "093010.502000", "093012.502000", "093014.502000", "093016.503000", "093018.502000", "093020.503000", "093022.502000", "093024.285000"],
      "InstanceCreationTime": ["092100.509000", "092101.502000", "092102.501000", "092102.505000", "092103.500000", "092104.501000", "092104.505000", "092105.502000", "092106.501000", "092107.500000", "092108.501000", "092110.502000", "092112.502000", "092114.502000", "092116.503000", "092118.503000", "092120.503000", "092122.502000", "092124.502000", "092126.502000", "092128.502000", "092130.502000", "092132.502000", "092134.503000", "092136.503000", "092138.502000", "092140.502000", "092142.502000", "092144.503000", "092146.502000", "092148.503000", "092150.502000", "092152.503000", "092154.503000", "092156.501000", "092158.501000", "092200.501000", "092202.500000", "092204.502000", "092206.502000", "092208.502000", "092210.503000", "092212.503000", "092214.502000", "092216.501000", "092218.502000", "092220.502000", "092222.502000", "092224.502000", "092226.501000", "092228.503000", "092230.502000", "092232.502000", "092234.502000", "092236.502000", "092238.502000", "092240.502000", "092242.502000", "092244.503000", "092246.503000", "092248.502000", "092250.501000", "092252.502000", "092254.502000", "092256.502000", "092258.502000", "092300.500000", "092302.503000", "092304.504000", "092306.502000", "092308.503000", "092310.502000", "092312.502000", "092314.502000", "092316.502000", "092318.502000", "092320.503000", "092322.503000", "092324.502000", "092326.502000", "092328.502000", "092330.502000", "092332.502000", "092334.502000", "092336.502000", "092338.503000", "092340.504000", "092342.502000", "092344.503000", "092346.502000", "092348.502000", "092350.502000", "092352.502000", "092354.503000", "092356.503000", "092358.502000", "092400.502000", "092402.502000", "092404.502000", "092406.502000", "092408.502000", "092410.503000", "092412.503000", "092414.503000", "092416.502000", "092418.502000", "092420.503000", "092422.502000", "092424.502000", "092426.502000", "092428.522000", "092430.503000", "092432.504000", "092434.502000", "092436.502000", "092438.502000", "092440.503000", "092442.503000", "092444.502000", "092446.502000", "092448.503000", "092450.503000", "092452.504000", "092454.502000", "092456.502000", "092458.502000", "092500.502000", "092502.502000", "092504.503000", "092506.503000", "092508.502000", "092510.501000", "092512.501000", "092514.502000", "092516.500000", "092518.504000", "092520.503000", "092522.505000", "092524.503000", "092526.502000", "092528.502000", "092530.502000", "092532.502000", "092534.502000", "092536.502000", "092538.502000", "092540.503000", "092542.503000", "092544.502000", "092546.502000", "092548.502000", "092550.501000", "092552.502000", "092554.502000", "092556.502000", "092558.504000", "092600.503000", "092602.502000", "092604.502000", "092606.502000", "092608.502000", "092610.502000", "092612.502000", "092614.503000", "092616.503000", "092618.501000", "092620.502000", "092622.502000", "092624.502000", "092626.503000", "092628.502000", "092630.501000", "092632.504000", "092634.503000", "092636.502000", "092638.502000", "092640.503000", "092642.502000", "092644.502000", "092646.502000", "092648.502000", "092650.503000", "092652.503000", "092654.502000", "092656.502000", "092658.502000", "092700.502000", "092702.502000", "092704.502000", "092706.503000", "092708.503000", "092710.503000", "092712.502000", "092714.501000", "092716.502000", "092718.502000", "092720.503000", "092722.502000", "092724.503000", "092726.503000", "092728.502000", "092730.502000", "092732.502000", "092734.502000", "092736.502000", "092738.502000", "092740.502000", "092742.503000", "092744.503000", "092746.502000", "092748.502000", "092750.502000", "092752.502000", "092754.502000", "092756.503000", "092758.502000", "092800.503000", "092802.503000", "092804.503000", "092806.502000", "092808.502000", "092810.502000", "092812.502000", "092814.502000", "092816.503000", "092818.503000", "092820.502000", "092822.501000", "092824.503000", "092826.502000", "092828.501000", "092830.500000", "092832.502000", "092834.503000", "092836.503000", "092838.502000", "092840.502000", "092842.502000", "092844.502000", "092846.500000", "092848.502000", "092850.502000", "092852.503000", "092854.503000", "092856.503000", "092858.502000", "092900.502000", "092902.502000", "092904.502000", "092906.502000", "092908.502000", "092910.503000", "092912.503000", "092914.502000", "092916.502000", "092918.501000", "092920.502000", "092922.502000", "092924.501000", "092926.502000", "092928.503000", "092930.502000", "092932.503000", "092934.502000", "092936.509000", "092938.502000", "092940.502000", "092942.502000", "092944.503000", "092946.503000", "092948.502000", "092950.502000", "092952.502000", "092954.502000", "092956.502000", "092958.502000", "093000.502000", "093002.503000", "093004.503000", "093006.502000", "093008.502000", "093010.502000", "093012.502000", "093014.502000", "093016.503000", "093018.502000", "093020.503000", "093022.502000", "093024.285000"],
      "InstanceNumber": [1, 2, 3, 4, 5, 6, 7, 8, 9, 10, 11, 12, 13, 14, 15, 16, 17, 18, 19, 20, 21, 22, 23, 24, 25, 26, 27, 28, 29, 30, 31, 32, 33, 34, 35, 36, 37, 38, 39, 40, 41, 42, 43, 44, 45, 46, 47, 48, 49, 50, 51, 52, 53, 54, 55, 56, 57, 58, 59, 60, 61, 62, 63, 64, 65, 66, 67, 68, 69, 70, 71, 72, 73, 74, 75, 76, 77, 78, 79, 80, 81, 82, 83, 84, 85, 86, 87, 88, 89, 90, 91, 92, 93, 94, 95, 96, 97, 98, 99, 100, 101, 102, 103, 104, 105, 106, 107, 108, 109, 110, 111, 112, 113, 114, 115, 116, 117, 118, 119, 120, 121, 122, 123, 124, 125, 126, 127, 128, 129, 130, 131, 132, 133, 134, 135, 136, 137, 138, 139, 140, 141, 142, 143, 144, 145, 146, 147, 148, 149, 150, 151, 152, 153, 154, 155, 156, 157, 158, 159, 160, 161, 162, 163, 164, 165, 166, 167, 168, 169, 170, 171, 172, 173, 174, 175, 176, 177, 178, 179, 180, 181, 182, 183, 184, 185, 186, 187, 188, 189, 190, 191, 192, 193, 194, 195, 196, 197, 198, 199, 200, 201, 202, 203, 204, 205, 206, 207, 208, 209, 210, 211, 212, 213, 214, 215, 216, 217, 218, 219, 220, 221, 222, 223, 224, 225, 226, 227, 228, 229, 230, 231, 232, 233, 234, 235, 236, 237, 238, 239, 240, 241, 242, 243, 244, 245, 246, 247, 248, 249, 250, 251, 252, 253, 254, 255, 256, 257, 258, 259, 260, 261, 262, 263, 264, 265, 266, 267, 268, 269, 270, 271, 272, 273, 274, 275, 276, 277, 278, 279, 280, 281, 282, 283, 284, 285, 286, 287, 288, 289],
      "WindowCenter": [15476.0, 15439.0, 15445.0, 15446.0, 15457.0, 15465.0, 15449.0, 15453.0, 15446.0, 15452.0, 15448.0, 15446.0, 15440.0, 15442.0, 15439.0, 15455.0, 15453.0, 15448.0, 15444.0, 15459.0, 15448.0, 15446.0, 15452.0, 15441.0, 15452.0, 15441.0, 15439.0, 15430.0, 15434.0, 15439.0, 15453.0, 15451.0, 15438.0, 15432.0, 15439.0, 15441.0, 15459.0, 15457.0, 15440.0, 15432.0, 15432.0, 15420.0, 15434.0, 15437.0, 15443.0, 15437.0, 15442.0, 15439.0, 15441.0, 15437.0, 15441.0, 15433.0, 15437.0, 15438.0, 15446.0, 15451.0, 15452.0, 15437.0, 15435.0, 15444.0, 15440.0, 15444.0, 15434.0, 15431.0, 15443.0, 15445.0, 15444.0, 15437.0, 15441.0, 15440.0, 15450.0, 15440.0, 15441.0, 15452.0, 15443.0, 15439.0, 15452.0, 15450.0, 15451.0, 15443.0, 15437.0, 15435.0, 15441.0, 15454.0, 15453.0, 15463.0, 15450.0, 15459.0, 15464.0, 15458.0, 15435.0, 15453.0, 15450.0, 15445.0, 15455.0, 15449.0, 15442.0, 15446.0, 15442.0, 15446.0, 15450.0, 15450.0, 15455.0, 15451.0, 15449.0, 15441.0, 15447.0, 15449.0, 15454.0, 15451.0, 15451.0, 15449.0, 15444.0, 15448.0, 15454.0, 15440.0, 15446.0, 15437.0, 15446.0, 15452.0, 15452.0, 15454.0, 15437.0, 15438.0, 15438.0, 15450.0, 15446.0, 15436.0, 15428.0, 15434.0, 15430.0, 15432.0, 15441.0, 15443.0, 15441.0, 15433.0, 15443.0, 15436.0, 15433.0, 15431.0, 15428.0, 15436.0, 15431.0, 15435.0, 15430.0, 15425.0, 15431.0, 15434.0, 15433.0, 15431.0, 15431.0, 15429.0, 15418.0, 15416.0, 15431.0, 15429.0, 15443.0, 15439.0, 15430.0, 15433.0, 15436.0, 15438.0, 15440.0, 15440.0, 15440.0, 15432.0, 15430.0, 15432.0, 15443.0, 15433.0, 15432.0, 15429.0, 15431.0, 15431.0, 15435.0, 15430.0, 15430.0, 15430.0, 15430.0, 15435.0, 15433.0, 15420.0, 15443.0, 15431.0, 15434.0, 15433.0, 15426.0, 15423.0, 15412.0, 15418.0, 15423.0, 15432.0, 15426.0, 15441.0, 15434.0, 15442.0, 15433.0, 15433.0, 15426.0, 15428.0, 15433.0, 15431.0, 15433.0, 15446.0, 15441.0, 15441.0, 15442.0, 15437.0, 15439.0, 15432.0, 15432.0, 15435.0, 15426.0, 15428.0, 15430.0, 15443.0, 15439.0, 15442.0, 15432.0, 15439.0, 15425.0, 15444.0, 15440.0, 15419.0, 15431.0, 15434.0, 15446.0, 15452.0, 15448.0, 15449.0, 15437.0, 15429.0, 15437.0, 15442.0, 15445.0, 15446.0, 15440.0, 15439.0, 15432.0, 15432.0, 15446.0, 15438.0, 15446.0, 15443.0, 15438.0, 15444.0, 15451.0, 15436.0, 15433.0, 15439.0, 15441.0, 15441.0, 15432.0, 15437.0, 15435.0, 15433.0, 15444.0, 15442.0, 15445.0, 15434.0, 15439.0, 15438.0, 15432.0, 15455.0, 15456.0, 15448.0, 15442.0, 15421.0, 15421.0, 15432.0, 15439.0, 15435.0, 15436.0, 15436.0, 15426.0, 15439.0, 15442.0, 15447.0, 15441.0, 15434.0, 15444.0, 15448.0, 15446.0, 15449.0, 15423.0, 15435.0, 15451.0, 15448.0, 15442.0],
      "WindowWidth": [43202.0, 43078.0, 43084.0, 43169.0, 43212.0, 43219.0, 43204.0, 43165.0, 43186.0, 43207.0, 43188.0, 43128.0, 43108.0, 43125.0, 43181.0, 43195.0, 43135.0, 43103.0, 43116.0, 43146.0, 43161.0, 43159.0, 43136.0, 43168.0, 43195.0, 43155.0, 43123.0, 43113.0, 43102.0, 43136.0, 43123.0, 43052.0, 43037.0, 43072.0, 43138.0, 43242.0, 43248.0, 43160.0, 43123.0, 43072.0, 43056.0, 43060.0, 43077.0, 43038.0, 43029.0, 43036.0, 43041.0, 43067.0, 43056.0, 43037.0, 43026.0, 43017.0, 43022.0, 43108.0, 43218.0, 43167.0, 43065.0, 43048.0, 43063.0, 43101.0, 43084.0, 43031.0, 43061.0, 43100.0, 43100.0, 43087.0, 43058.0, 43037.0, 43083.0, 43110.0, 43092.0, 43110.0, 43111.0, 43067.0, 43100.0, 43152.0, 43151.0, 43149.0, 43137.0, 43085.0, 43075.0, 43130.0, 43122.0, 43081.0, 43096.0, 43134.0, 43178.0, 43187.0, 43106.0, 43045.0, 43062.0, 43051.0, 43064.0, 43071.0, 43054.0, 43075.0, 43113.0, 43089.0, 43069.0, 43059.0, 43049.0, 43078.0, 43112.0, 43052.0, 43035.0, 43041.0, 43047.0, 43036.0, 43084.0, 43067.0, 43080.0, 43047.0, 43056.0, 43077.0, 43055.0, 43027.0, 43047.0, 43052.0, 43105.0, 43139.0, 43111.0, 43013.0, 42994.0, 43026.0, 43097.0, 43123.0, 43048.0, 42980.0, 42986.0, 43048.0, 43043.0, 43047.0, 43057.0, 43044.0, 43069.0, 43076.0, 43014.0, 42979.0, 42977.0, 42962.0, 42985.0, 42979.0, 43003.0, 43021.0, 43004.0, 43000.0, 43033.0, 43034.0, 42992.0, 43005.0, 42976.0, 42932.0, 42950.0, 43003.0, 43063.0, 43104.0, 43088.0, 43026.0, 43029.0, 43031.0, 43050.0, 43069.0, 43043.0, 42959.0, 42943.0, 42961.0, 43016.0, 43118.0, 43117.0, 43033.0, 43003.0, 42999.0, 42976.0, 43019.0, 43051.0, 43003.0, 42973.0, 42987.0, 43016.0, 43035.0, 43035.0, 43005.0, 42985.0, 43001.0, 42991.0, 42977.0, 42984.0, 42939.0, 42969.0, 42988.0, 43021.0, 43060.0, 43055.0, 43028.0, 43019.0, 43013.0, 42990.0, 42976.0, 42969.0, 42944.0, 42962.0, 43031.0, 43087.0, 43115.0, 43082.0, 43025.0, 43011.0, 43020.0, 43023.0, 43016.0, 43002.0, 42921.0, 42938.0, 42984.0, 43001.0, 43029.0, 43041.0, 42986.0, 43003.0, 43009.0, 43037.0, 43000.0, 42927.0, 42891.0, 42947.0, 43007.0, 43033.0, 43026.0, 42994.0, 42966.0, 42981.0, 43015.0, 43009.0, 43015.0, 43019.0, 43019.0, 42995.0, 42980.0, 42973.0, 43001.0, 42991.0, 42970.0, 42977.0, 42986.0, 42996.0, 43002.0, 42996.0, 42924.0, 42947.0, 42996.0, 43014.0, 42973.0, 42978.0, 42982.0, 42992.0, 42961.0, 42960.0, 42986.0, 43019.0, 43007.0, 42966.0, 42951.0, 43003.0, 43072.0, 43075.0, 42980.0, 42930.0, 42918.0, 42907.0, 42962.0, 42986.0, 42954.0, 42912.0, 42924.0, 42955.0, 42998.0, 43004.0, 42953.0, 42945.0, 42980.0, 43089.0, 43092.0, 42991.0, 42880.0, 42938.0, 43008.0, 43067.0, 43034.0, 42987.0]
    },
    "slices": {}
  }
}