{
  "AcquisitionMatrixPE": 116,
  "AcquisitionNumber": 1,
  "AcquisitionTime": "09:09:35.262500",
  "BandwidthPerPixelPhaseEncode": 18.539,
  "BaseResolution": 116,
  "BodyPartExamined": "HEAD",
  "ConsistencyInfo": "N4_VD13D_LATEST_20130810",
  "ConversionSoftware": "dcm2niix",
  "ConversionSoftwareVersion": "v1.0.20190410  (JP2:OpenJPEG) (JP-LS:CharLS) GCC5.5.0",
  "DerivedVendorReportedEchoSpacing": 0.000930006,
  "DeviceSerialNumber": "66014",
  "DwellTime": 3e-06,
  "EchoTime": 0.03,
  "EchoTrainLength": 50,
  "EffectiveEchoSpacing": 0.000465003,
  "FlipAngle": 81,
  "ImageComments": "Unaliased_MB3_PE4",
  "ImageOrientationPatientDICOM": [0.999074, 0.0411388, 0.0125953, -0.0401269, 0.996587, -0.0721379],
  "ImageType": [
    "ORIGINAL",
    "PRIMARY",
    "M",
    "MB",
    "ND",
    "MOSAIC"
],
  "ImagingFrequency": 123.261,
  "InPlanePhaseEncodingDirectionDICOM": "COL",
  "InstitutionAddress": "Yiheyuan_Road_5_Beijing_Haidian_CN_100871",
  "InstitutionName": "Peking_University",
  "InstitutionalDepartmentName": "Department",
  "MRAcquisitionType": "2D",
  "MagneticFieldStrength": 3,
  "Manufacturer": "Siemens",
  "ManufacturersModelName": "Prisma",
  "Modality": "MR",
  "MultibandAccelerationFactor": 3,
  "ParallelReductionFactorInPlane": 2,
  "PartialFourier": 0.875,
  "PatientPosition": "HFS",
  "PercentPhaseFOV": 100,
  "PhaseEncodingDirection": "j-",
  "PhaseEncodingSteps": 101,
  "PhaseResolution": 1,
  "PixelBandwidth": 1435,
  "ProcedureStepDescription": "Research_Projects_64CH",
  "ProtocolName": "mbep2d_bold_MB3_test1",
  "PulseSequenceDetails": "%CustomerSeq%_cmrr_mbep2d_bold",
  "ReceiveCoilActiveElements": "HC1-7",
  "ReceiveCoilName": "HeadNeck_64",
  "ReconMatrixPE": 116,
  "RefLinesPE": 44,
  "RepetitionTime": 2,
  "SAR": 0.0547135,
  "ScanOptions": "PFP_FS",
  "ScanningSequence": "EP",
  "SequenceName": "epfid2d1_116",
  "SequenceVariant": "SK_SS",
  "SeriesDescription": "mbep2d_bold_MB3_test1",
  "SeriesNumber": 6,
  "ShimSetting": [-3448, -2160, -1961, 226, -13, -415, -33, 43],
  "SliceThickness": 1.9,
  "SliceTiming": [0, 0.9075, 1.815, 0.7425, 1.65, 0.5775, 1.485, 0.4125, 1.32, 0.2475, 1.155, 0.0825, 0.99, 1.8975, 0.825, 1.7325, 0.66, 1.5675, 0.495, 1.4025, 0.33, 1.2375, 0.165, 1.0725, 0, 0.9075, 1.815, 0.7425, 1.65, 0.5775, 1.485, 0.4125, 1.32, 0.2475, 1.155, 0.0825, 0.99, 1.8975, 0.825, 1.7325, 0.66, 1.5675, 0.495, 1.4025, 0.33, 1.2375, 0.165, 1.0725, 0, 0.9075, 1.815, 0.7425, 1.65, 0.5775, 1.485, 0.4125, 1.32, 0.2475, 1.155, 0.0825, 0.99, 1.8975, 0.825, 1.7325, 0.66, 1.5675, 0.495, 1.4025, 0.33, 1.2375, 0.165, 1.0725],
  "SoftwareVersions": "syngo_MR_D13D",
  "SpacingBetweenSlices": 1.9,
  "StationName": "AWP66014",
  "TaskName": "retrieval",
  "TotalReadoutTime": 0.0534753,
  "TxRefAmp": 215.167,
  "WipMemBlock": "71a3b000-85a6-42b2-9c73-e2bbcecbc88c||Sequence: vd13d/master r/0735857; Nov 19 2014 09:21:40 by eja",
  "dcmmeta_affine": [
    [-1.8947956562042236, -0.0761028304696083, 0.02948802150785923, 112.7520980834961],
    [-0.07802184671163559, 1.890079140663147, -0.13597480952739716, -90.75265502929688],
    [0.023887697607278824, 0.13681325316429138, 1.894898772239685, -68.27082061767578],
    [0.0, 0.0, 0.0, 1.0]
],
  "dcmmeta_reorient_transform": [
    [0.0, -1.0, 0.0, 115.0],
    [1.0, 0.0, 0.0, 0.0],
    [0.0, 0.0, 1.0, 0.0],
    [0.0, 0.0, 0.0, 1.0]
],
  "dcmmeta_shape": [116, 116, 72, 289],
  "dcmmeta_slice_dim": 2,
  "dcmmeta_version": 0.6,
  "global": {
    "const": {
      "AcquisitionMatrix": [116, 0, 0, 116],
      "AngioFlag": "N",
      "BitsAllocated": 16,
      "BitsStored": 16,
      "BodyPartExamined": "HEAD",
      "Columns": 1044,
      "EchoNumbers": 1,
      "EchoTime": 30.0,
      "EchoTrainLength": 50,
      "FlipAngle": 81.0,
      "HighBit": 15,
      "ImageOrientationPatient": [0.99907405007659, 0.04113879062186, 0.01259533126763, -0.0401269450074, 0.99658715219761, -0.0721378982161],
      "ImagePositionPatient": [-947.87372921109, -1039.8052724558, -0.1398375056146],
      "ImageType": [
        "ORIGINAL",
        "PRIMARY",
        "M",
        "MB",
        "ND",
        "MOSAIC"
],
      "ImagedNucleus": "1H",
      "ImagingFrequency": 123.260554,
      "InPlanePhaseEncodingDirection": "COL",
      "LargestImagePixelValue": 65535,
      "MRAcquisitionType": "2D",
      "MagneticFieldStrength": 3.0,
      "Manufacturer": "SIEMENS",
      "ManufacturerModelName": "Prisma",
      "Modality": "MR",
      "NumberOfAverages": 1.0,
      "NumberOfPhaseEncodingSteps": 101,
      "PercentPhaseFieldOfView": 100.0,
      "PercentSampling": 100.0,
      "PerformedProcedureStepStartTime": "085820.558000",
      "PhotometricInterpretation": "MONOCHROME2",
      "PixelBandwidth": 1435.0,
      "PixelRepresentation": 0,
      "PixelSpacing": [1.8965517282486, 1.8965517282486],
      "ProtocolName": "mbep2d_bold_MB3_test1",
      "RepetitionTime": 2000.0,
      "Rows": 1044,
      "SAR": 0.05471354602878,
      "SamplesPerPixel": 1,
      "ScanOptions": [
        "PFP",
        "FS"
],
      "ScanningSequence": "EP",
      "SequenceName": "epfid2d1_116",
      "SequenceVariant": [
        "SK",
        "SS"
],
      "SeriesDescription": "mbep2d_bold_MB3_test1",
      "SeriesNumber": 6,
      "SeriesTime": "090950.642000",
      "SliceLocation": -59.842832915698,
      "SliceThickness": 1.8999999761581,
      "SmallestImagePixelValue": 0,
      "SoftwareVersions": "syngo MR D13D",
      "SpacingBetweenSlices": 1.9000000453816,
      "SpecificCharacterSet": "ISO_IR 100",
      "StudyID": "1",
      "StudyTime": "085820.504000",
      "TimeOfLastCalibration": ["123723.000000", "123723.000000"],
      "TransmitCoilName": "Body",
      "VariableFlipAngleFlag": "N",
      "WindowCenterWidthExplanation": "Algo1",
      "dBdt": 0.0},
    "slices": {}
  },
  "time": {
    "samples": {
      "AcquisitionNumber": [1, 2, 3, 4, 5, 6, 7, 8, 9, 10, 11, 12, 13, 14, 15, 16, 17, 18, 19, 20, 21, 22, 23, 24, 25, 26, 27, 28, 29, 30, 31, 32, 33, 34, 35, 36, 37, 38, 39, 40, 41, 42, 43, 44, 45, 46, 47, 48, 49, 50, 51, 52, 53, 54, 55, 56, 57, 58, 59, 60, 61, 62, 63, 64, 65, 66, 67, 68, 69, 70, 71, 72, 73, 74, 75, 76, 77, 78, 79, 80, 81, 82, 83, 84, 85, 86, 87, 88, 89, 90, 91, 92, 93, 94, 95, 96, 97, 98, 99, 100, 101, 102, 103, 104, 105, 106, 107, 108, 109, 110, 111, 112, 113, 114, 115, 116, 117, 118, 119, 120, 121, 122, 123, 124, 125, 126, 127, 128, 129, 130, 131, 132, 133, 134, 135, 136, 137, 138, 139, 140, 141, 142, 143, 144, 145, 146, 147, 148, 149, 150, 151, 152, 153, 154, 155, 156, 157, 158, 159, 160, 161, 162, 163, 164, 165, 166, 167, 168, 169, 170, 171, 172, 173, 174, 175, 176, 177, 178, 179, 180, 181, 182, 183, 184, 185, 186, 187, 188, 189, 190, 191, 192, 193, 194, 195, 196, 197, 198, 199, 200, 201, 202, 203, 204, 205, 206, 207, 208, 209, 210, 211, 212, 213, 214, 215, 216, 217, 218, 219, 220, 221, 222, 223, 224, 225, 226, 227, 228, 229, 230, 231, 232, 233, 234, 235, 236, 237, 238, 239, 240, 241, 242, 243, 244, 245, 246, 247, 248, 249, 250, 251, 252, 253, 254, 255, 256, 257, 258, 259, 260, 261, 262, 263, 264, 265, 266, 267, 268, 269, 270, 271, 272, 273, 274, 275, 276, 277, 278, 279, 280, 281, 282, 283, 284, 285, 286, 287, 288, 289],
      "AcquisitionTime": ["090935.262500", "090937.262500", "090939.262500", "090941.262500", "090943.262500", "090945.262500", "090947.262500", "090949.262500", "090951.262500", "090953.262500", "090955.262500", "090957.262500", "090959.262500", "091001.262500", "091003.262500", "091005.262500", "091007.262500", "091009.262500", "091011.262500", "091013.262500", "091015.262500", "091017.262500", "091019.262500", "091021.262500", "091023.262500", "091025.262500", "091027.262500", "091029.262500", "091031.262500", "091033.262500", "091035.262500", "091037.262500", "091039.262500", "091041.262500", "091043.262500", "091045.262500", "091047.262500", "091049.262500", "091051.262500", "091053.262500", "091055.262500", "091057.262500", "091059.262500", "091101.262500", "091103.262500", "091105.262500", "091107.262500", "091109.262500", "091111.262500", "091113.262500", "091115.262500", "091117.262500", "091119.262500", "091121.262500", "091123.262500", "091125.262500", "091127.262500", "091129.262500", "091131.262500", "091133.262500", "091135.262500", "091137.262500", "091139.262500", "091141.262500", "091143.262500", "091145.262500", "091147.262500", "091149.262500", "091151.262500", "091153.262500", "091155.262500", "091157.262500", "091159.262500", "091201.262500", "091203.262500", "091205.262500", "091207.262500", "091209.262500", "091211.262500", "091213.262500", "091215.262500", "091217.262500", "091219.262500", "091221.262500", "091223.262500", "091225.262500", "091227.262500", "091229.262500", "091231.262500", "091233.262500", "091235.262500", "091237.265000", "091239.265000", "091241.265000", "091243.265000", "091245.265000", "091247.265000", "091249.265000", "091251.265000", "091253.265000", "091255.265000", "091257.265000", "091259.265000", "091301.265000", "091303.265000", "091305.265000", "091307.265000", "091309.265000", "091311.265000", "091313.265000", "091315.265000", "091317.265000", "091319.265000", "091321.265000", "091323.265000", "091325.265000", "091327.265000", "091329.265000", "091331.265000", "091333.265000", "091335.265000", "091337.265000", "091339.265000", "091341.265000", "091343.265000", "091345.265000", "091347.265000", "091349.265000", "091351.265000", "091353.265000", "091355.265000", "091357.265000", "091359.265000", "091401.265000", "091403.265000", "091405.265000", "091407.265000", "091409.265000", "091411.265000", "091413.265000", "091415.265000", "091417.265000", "091419.265000", "091421.265000", "091423.265000", "091425.265000", "091427.265000", "091429.265000", "091431.265000", "091433.265000", "091435.265000", "091437.265000", "091439.265000", "091441.265000", "091443.265000", "091445.265000", "091447.265000", "091449.265000", "091451.265000", "091453.265000", "091455.265000", "091457.265000", "091459.265000", "091501.265000", "091503.265000", "091505.265000", "091507.265000", "091509.265000", "091511.265000", "091513.265000", "091515.265000", "091517.265000", "091519.265000", "091521.265000", "091523.265000", "091525.265000", "091527.265000", "091529.265000", "091531.265000", "091533.265000", "091535.265000", "091537.265000", "091539.265000", "091541.265000", "091543.265000", "091545.265000", "091547.265000", "091549.265000", "091551.265000", "091553.265000", "091555.265000", "091557.265000", "091559.265000", "091601.265000", "091603.265000", "091605.265000", "091607.265000", "091609.265000", "091611.265000", "091613.265000", "091615.265000", "091617.265000", "091619.265000", "091621.265000", "091623.265000", "091625.265000", "091627.265000", "091629.265000", "091631.265000", "091633.265000", "091635.265000", "091637.265000", "091639.265000", "091641.265000", "091643.265000", "091645.265000", "091647.265000", "091649.265000", "091651.265000", "091653.265000", "091655.265000", "091657.265000", "091659.265000", "091701.265000", "091703.265000", "091705.265000", "091707.265000", "091709.265000", "091711.265000", "091713.265000", "091715.265000", "091717.265000", "091719.265000", "091721.265000", "091723.265000", "091725.265000", "091727.265000", "091729.265000", "091731.265000", "091733.265000", "091735.265000", "091737.265000", "091739.265000", "091741.265000", "091743.265000", "091745.265000", "091747.265000", "091749.265000", "091751.265000", "091753.265000", "091755.265000", "091757.265000", "091759.265000", "091801.265000", "091803.265000", "091805.265000", "091807.265000", "091809.265000", "091811.265000", "091813.265000", "091815.265000", "091817.265000", "091819.265000", "091821.265000", "091823.265000", "091825.265000", "091827.265000", "091829.265000", "091831.265000", "091833.265000", "091835.265000", "091837.265000", "091839.265000", "091841.265000", "091843.265000", "091845.265000", "091847.265000", "091849.265000", "091851.265000", "091853.265000", "091855.265000", "091857.265000", "091859.265000", "091901.265000", "091903.265000", "091905.265000", "091907.265000", "091909.265000", "091911.265000"],
      "ContentTime": ["090950.648000", "090951.641000", "090952.640000", "090952.644000", "090953.639000", "090954.640000", "090954.644000", "090955.641000", "090956.640000", "090957.643000", "090958.641000", "091000.143000", "091002.141000", "091004.141000", "091006.141000", "091008.141000", "091010.141000", "091012.140000", "091014.142000", "091016.142000", "091018.142000", "091020.141000", "091022.141000", "091024.141000", "091026.142000", "091028.140000", "091030.142000", "091032.142000", "091034.142000", "091036.141000", "091038.141000", "091040.141000", "091042.141000", "091044.141000", "091046.141000", "091048.141000", "091050.142000", "091052.142000", "091054.141000", "091056.141000", "091058.141000", "091100.141000", "091102.141000", "091104.141000", "091106.143000", "091108.142000", "091110.142000", "091112.141000", "091114.141000", "091116.141000", "091118.141000", "091120.141000", "091122.141000", "091124.142000", "091126.142000", "091128.140000", "091130.140000", "091132.141000", "091134.141000", "091136.140000", "091138.142000", "091140.142000", "091142.142000", "091144.142000", "091146.141000", "091148.141000", "091150.155000", "091152.141000", "091154.141000", "091156.141000", "091158.142000", "091200.142000", "091202.142000", "091204.141000", "091206.141000", "091208.141000", "091210.141000", "091212.141000", "091214.141000", "091216.142000", "091218.141000", "091220.143000", "091222.141000", "091224.141000", "091226.141000", "091228.141000", "091230.141000", "091232.141000", "091234.142000", "091236.142000", "091238.142000", "091240.141000", "091242.141000", "091244.141000", "091246.141000", "091248.141000", "091250.142000", "091252.142000", "091254.142000", "091256.141000", "091258.141000", "091300.140000", "091302.141000", "091304.141000", "091306.142000", "091308.142000", "091310.142000", "091312.142000", "091314.142000", "091316.141000", "091318.141000", "091320.142000", "091322.141000", "091324.141000", "091326.142000", "091328.142000", "091330.142000", "091332.141000", "091334.141000", "091336.141000", "091338.141000", "091340.141000", "091342.141000", "091344.142000", "091346.143000", "091348.142000", "091350.141000", "091352.141000", "091354.141000", "091356.141000", "091358.141000", "091400.142000", "091402.142000", "091404.142000", "091406.141000", "091408.141000", "091410.141000", "091412.142000", "091414.141000", "091416.141000", "091418.142000", "091420.142000", "091422.142000", "091424.141000", "091426.140000", "091428.141000", "091430.141000", "091432.141000", "091434.141000", "091436.142000", "091438.142000", "091440.142000", "091442.141000", "091444.141000", "091446.141000", "091448.141000", "091450.141000", "091452.141000", "091454.142000", "091456.142000", "091458.142000", "091500.141000", "091502.141000", "091504.141000", "091506.141000", "091508.141000", "091510.142000", "091512.142000", "091514.142000", "091516.141000", "091518.141000", "091520.142000", "091522.141000", "091524.141000", "091526.141000", "091528.142000", "091530.142000", "091532.141000", "091534.141000", "091536.142000", "091538.141000", "091540.141000", "091542.141000", "091544.141000", "091546.142000", "091548.142000", "091550.142000", "091552.141000", "091554.141000", "091556.140000", "091558.141000", "091600.141000", "091602.142000", "091604.142000", "091606.142000", "091608.142000", "091610.141000", "091612.141000", "091614.141000", "091616.141000", "091618.141000", "091620.143000", "091622.142000", "091624.142000", "091626.141000", "091628.141000", "091630.141000", "091632.141000", "091634.141000", "091636.141000", "091638.142000", "091640.142000", "091642.142000", "091644.141000", "091646.141000", "091648.142000", "091650.141000", "091652.142000", "091654.141000", "091656.142000", "091658.142000", "091700.142000", "091702.141000", "091704.142000", "091706.141000", "091708.141000", "091710.141000", "091712.142000", "091714.142000", "091716.142000", "091718.142000", "091720.141000", "091722.141000", "091724.141000", "091726.141000", "091728.141000", "091730.142000", "091732.142000", "091734.142000", "091736.140000", "091738.142000", "091740.141000", "091742.150000", "091744.141000", "091746.140000", "091748.142000", "091750.142000", "091752.143000", "091754.141000", "091756.141000", "091758.141000", "091800.141000", "091802.141000", "091804.141000", "091806.142000", "091808.142000", "091810.142000", "091812.141000", "091814.141000", "091816.141000", "091818.141000", "091820.141000", "091822.142000", "091824.142000", "091826.142000", "091828.141000", "091830.141000", "091832.141000", "091834.141000", "091836.140000", "091838.139000", "091840.142000", "091842.142000", "091844.143000", "091846.141000", "091848.141000", "091850.141000", "091852.141000", "091854.141000", "091856.141000", "091858.142000", "091900.142000", "091902.141000", "091904.141000", "091906.141000", "091908.141000", "091910.142000", "091912.141000", "091914.000000"],
      "InstanceCreationTime": ["090950.648000", "090951.641000", "090952.640000", "090952.644000", "090953.639000", "090954.640000", "090954.644000", "090955.641000", "090956.640000", "090957.643000", "090958.641000", "091000.143000", "091002.141000", "091004.141000", "091006.141000", "091008.141000", "091010.141000", "091012.140000", "091014.142000", "091016.142000", "091018.142000", "091020.141000", "091022.141000", "091024.141000", "091026.142000", "091028.140000", "091030.142000", "091032.142000", "091034.142000", "091036.141000", "091038.141000", "091040.141000", "091042.141000", "091044.141000", "091046.141000", "091048.141000", "091050.142000", "091052.142000", "091054.141000", "091056.141000", "091058.141000", "091100.141000", "091102.141000", "091104.141000", "091106.143000", "091108.142000", "091110.142000", "091112.141000", "091114.141000", "091116.141000", "091118.141000", "091120.141000", "091122.141000", "091124.142000", "091126.142000", "091128.140000", "091130.140000", "091132.141000", "091134.141000", "091136.140000", "091138.142000", "091140.142000", "091142.142000", "091144.142000", "091146.141000", "091148.141000", "091150.155000", "091152.141000", "091154.141000", "091156.141000", "091158.142000", "091200.142000", "091202.142000", "091204.141000", "091206.141000", "091208.141000", "091210.141000", "091212.141000", "091214.141000", "091216.142000", "091218.141000", "091220.143000", "091222.141000", "091224.141000", "091226.141000", "091228.141000", "091230.141000", "091232.141000", "091234.142000", "091236.142000", "091238.142000", "091240.141000", "091242.141000", "091244.141000", "091246.141000", "091248.141000", "091250.142000", "091252.142000", "091254.142000", "091256.141000", "091258.141000", "091300.140000", "091302.141000", "091304.141000", "091306.142000", "091308.142000", "091310.142000", "091312.142000", "091314.142000", "091316.141000", "091318.141000", "091320.142000", "091322.141000", "091324.141000", "091326.142000", "091328.142000", "091330.142000", "091332.141000", "091334.141000", "091336.141000", "091338.141000", "091340.141000", "091342.141000", "091344.142000", "091346.143000", "091348.142000", "091350.141000", "091352.141000", "091354.141000", "091356.141000", "091358.141000", "091400.142000", "091402.142000", "091404.142000", "091406.141000", "091408.141000", "091410.141000", "091412.142000", "091414.141000", "091416.141000", "091418.142000", "091420.142000", "091422.142000", "091424.141000", "091426.140000", "091428.141000", "091430.141000", "091432.141000", "091434.141000", "091436.142000", "091438.142000", "091440.142000", "091442.141000", "091444.141000", "091446.141000", "091448.141000", "091450.141000", "091452.141000", "091454.142000", "091456.142000", "091458.142000", "091500.141000", "091502.141000", "091504.141000", "091506.141000", "091508.141000", "091510.142000", "091512.142000", "091514.142000", "091516.141000", "091518.141000", "091520.142000", "091522.141000", "091524.141000", "091526.141000", "091528.142000", "091530.142000", "091532.141000", "091534.141000", "091536.142000", "091538.141000", "091540.141000", "091542.141000", "091544.141000", "091546.142000", "091548.142000", "091550.142000", "091552.141000", "091554.141000", "091556.140000", "091558.141000", "091600.141000", "091602.142000", "091604.142000", "091606.142000", "091608.142000", "091610.141000", "091612.141000", "091614.141000", "091616.141000", "091618.141000", "091620.143000", "091622.142000", "091624.142000", "091626.141000", "091628.141000", "091630.141000", "091632.141000", "091634.141000", "091636.141000", "091638.142000", "091640.142000", "091642.142000", "091644.141000", "091646.141000", "091648.142000", "091650.141000", "091652.142000", "091654.141000", "091656.142000", "091658.142000", "091700.142000", "091702.141000", "091704.142000", "091706.141000", "091708.141000", "091710.141000", "091712.142000", "091714.142000", "091716.142000", "091718.142000", "091720.141000", "091722.141000", "091724.141000", "091726.141000", "091728.141000", "091730.142000", "091732.142000", "091734.142000", "091736.140000", "091738.142000", "091740.141000", "091742.150000", "091744.141000", "091746.140000", "091748.142000", "091750.142000", "091752.143000", "091754.141000", "091756.141000", "091758.141000", "091800.141000", "091802.141000", "091804.141000", "091806.142000", "091808.142000", "091810.142000", "091812.141000", "091814.141000", "091816.141000", "091818.141000", "091820.141000", "091822.142000", "091824.142000", "091826.142000", "091828.141000", "091830.141000", "091832.141000", "091834.141000", "091836.140000", "091838.139000", "091840.142000", "091842.142000", "091844.143000", "091846.141000", "091848.141000", "091850.141000", "091852.141000", "091854.141000", "091856.141000", "091858.142000", "091900.142000", "091902.141000", "091904.141000", "091906.141000", "091908.141000", "091910.142000", "091912.141000", "091914.000000"],
      "InstanceNumber": [1, 2, 3, 4, 5, 6, 7, 8, 9, 10, 11, 12, 13, 14, 15, 16, 17, 18, 19, 20, 21, 22, 23, 24, 25, 26, 27, 28, 29, 30, 31, 32, 33, 34, 35, 36, 37, 38, 39, 40, 41, 42, 43, 44, 45, 46, 47, 48, 49, 50, 51, 52, 53, 54, 55, 56, 57, 58, 59, 60, 61, 62, 63, 64, 65, 66, 67, 68, 69, 70, 71, 72, 73, 74, 75, 76, 77, 78, 79, 80, 81, 82, 83, 84, 85, 86, 87, 88, 89, 90, 91, 92, 93, 94, 95, 96, 97, 98, 99, 100, 101, 102, 103, 104, 105, 106, 107, 108, 109, 110, 111, 112, 113, 114, 115, 116, 117, 118, 119, 120, 121, 122, 123, 124, 125, 126, 127, 128, 129, 130, 131, 132, 133, 134, 135, 136, 137, 138, 139, 140, 141, 142, 143, 144, 145, 146, 147, 148, 149, 150, 151, 152, 153, 154, 155, 156, 157, 158, 159, 160, 161, 162, 163, 164, 165, 166, 167, 168, 169, 170, 171, 172, 173, 174, 175, 176, 177, 178, 179, 180, 181, 182, 183, 184, 185, 186, 187, 188, 189, 190, 191, 192, 193, 194, 195, 196, 197, 198, 199, 200, 201, 202, 203, 204, 205, 206, 207, 208, 209, 210, 211, 212, 213, 214, 215, 216, 217, 218, 219, 220, 221, 222, 223, 224, 225, 226, 227, 228, 229, 230, 231, 232, 233, 234, 235, 236, 237, 238, 239, 240, 241, 242, 243, 244, 245, 246, 247, 248, 249, 250, 251, 252, 253, 254, 255, 256, 257, 258, 259, 260, 261, 262, 263, 264, 265, 266, 267, 268, 269, 270, 271, 272, 273, 274, 275, 276, 277, 278, 279, 280, 281, 282, 283, 284, 285, 286, 287, 288, 289],
      "WindowCenter": [15453.0, 15428.0, 15437.0, 15436.0, 15439.0, 15427.0, 15435.0, 15422.0, 15432.0, 15446.0, 15445.0, 15443.0, 15436.0, 15440.0, 15430.0, 15445.0, 15431.0, 15433.0, 15438.0, 15438.0, 15426.0, 15429.0, 15436.0, 15441.0, 15440.0, 15432.0, 15422.0, 15430.0, 15425.0, 15435.0, 15433.0, 15444.0, 15437.0, 15431.0, 15414.0, 15429.0, 15429.0, 15436.0, 15436.0, 15433.0, 15438.0, 15441.0, 15430.0, 15421.0, 15420.0, 15436.0, 15441.0, 15442.0, 15442.0, 15426.0, 15424.0, 15424.0, 15419.0, 15415.0, 15417.0, 15438.0, 15439.0, 15430.0, 15424.0, 15414.0, 15422.0, 15415.0, 15407.0, 15429.0, 15417.0, 15417.0, 15416.0, 15412.0, 15408.0, 15417.0, 15419.0, 15423.0, 15419.0, 15424.0, 15425.0, 15431.0, 15419.0, 15411.0, 15412.0, 15413.0, 15410.0, 15408.0, 15417.0, 15423.0, 15409.0, 15413.0, 15414.0, 15410.0, 15411.0, 15415.0, 15404.0, 15402.0, 15405.0, 15405.0, 15406.0, 15411.0, 15417.0, 15412.0, 15413.0, 15414.0, 15418.0, 15405.0, 15411.0, 15408.0, 15412.0, 15411.0, 15409.0, 15404.0, 15400.0, 15412.0, 15407.0, 15412.0, 15410.0, 15404.0, 15398.0, 15398.0, 15397.0, 15412.0, 15415.0, 15415.0, 15421.0, 15405.0, 15405.0, 15409.0, 15407.0, 15408.0, 15399.0, 15406.0, 15415.0, 15409.0, 15408.0, 15407.0, 15414.0, 15409.0, 15396.0, 15403.0, 15408.0, 15413.0, 15404.0, 15404.0, 15396.0, 15406.0, 15403.0, 15397.0, 15402.0, 15387.0, 15404.0, 15405.0, 15406.0, 15411.0, 15408.0, 15405.0, 15411.0, 15403.0, 15397.0, 15393.0, 15405.0, 15393.0, 15406.0, 15392.0, 15398.0, 15404.0, 15398.0, 15404.0, 15398.0, 15413.0, 15413.0, 15421.0, 15419.0, 15400.0, 15399.0, 15403.0, 15411.0, 15400.0, 15406.0, 15407.0, 15402.0, 15407.0, 15420.0, 15408.0, 15414.0, 15404.0, 15410.0, 15408.0, 15406.0, 15401.0, 15415.0, 15394.0, 15395.0, 15405.0, 15413.0, 15425.0, 15417.0, 15416.0, 15408.0, 15403.0, 15411.0, 15410.0, 15427.0, 15423.0, 15415.0, 15417.0, 15435.0, 15426.0, 15445.0, 15434.0, 15430.0, 15424.0, 15426.0, 15424.0, 15431.0, 15419.0, 15425.0, 15438.0, 15432.0, 15440.0, 15423.0, 15418.0, 15416.0, 15419.0, 15438.0, 15440.0, 15434.0, 15421.0, 15431.0, 15421.0, 15428.0, 15433.0, 15436.0, 15417.0, 15422.0, 15429.0, 15434.0, 15438.0, 15447.0, 15434.0, 15441.0, 15428.0, 15417.0, 15426.0, 15433.0, 15428.0, 15420.0, 15421.0, 15428.0, 15429.0, 15420.0, 15416.0, 15410.0, 15423.0, 15437.0, 15426.0, 15424.0, 15412.0, 15426.0, 15425.0, 15428.0, 15423.0, 15424.0, 15415.0, 15411.0, 15417.0, 15437.0, 15451.0, 15438.0, 15422.0, 15419.0, 15431.0, 15428.0, 15432.0, 15426.0, 15426.0, 15413.0, 15416.0, 15423.0, 15424.0, 15425.0, 15417.0, 15422.0, 15429.0, 15435.0, 15432.0, 15426.0, 15423.0, 15425.0, 15418.0, 15431.0, 15428.0, 15431.0],
      "WindowWidth": [43271.0, 43245.0, 43324.0, 43350.0, 43267.0, 43257.0, 43323.0, 43353.0, 43365.0, 43381.0, 43364.0, 43344.0, 43337.0, 43313.0, 43319.0, 43320.0, 43348.0, 43351.0, 43328.0, 43300.0, 43330.0, 43346.0, 43324.0, 43301.0, 43301.0, 43251.0, 43255.0, 43293.0, 43344.0, 43354.0, 43382.0, 43350.0, 43286.0, 43249.0, 43261.0, 43334.0, 43392.0, 43327.0, 43286.0, 43312.0, 43316.0, 43276.0, 43237.0, 43215.0, 43298.0, 43342.0, 43347.0, 43334.0, 43263.0, 43218.0, 43203.0, 43232.0, 43169.0, 43193.0, 43311.0, 43346.0, 43305.0, 43222.0, 43144.0, 43165.0, 43202.0, 43223.0, 43243.0, 43237.0, 43209.0, 43180.0, 43181.0, 43203.0, 43229.0, 43237.0, 43238.0, 43229.0, 43242.0, 43247.0, 43303.0, 43265.0, 43196.0, 43173.0, 43176.0, 43193.0, 43260.0, 43270.0, 43236.0, 43172.0, 43158.0, 43164.0, 43195.0, 43245.0, 43233.0, 43208.0, 43212.0, 43222.0, 43238.0, 43223.0, 43197.0, 43203.0, 43196.0, 43191.0, 43192.0, 43206.0, 43166.0, 43182.0, 43217.0, 43200.0, 43174.0, 43159.0, 43099.0, 43083.0, 43080.0, 43093.0, 43131.0, 43149.0, 43131.0, 43096.0, 43077.0, 43062.0, 43133.0, 43190.0, 43209.0, 43197.0, 43189.0, 43185.0, 43185.0, 43131.0, 43114.0, 43131.0, 43164.0, 43115.0, 43081.0, 43089.0, 43145.0, 43145.0, 43125.0, 43048.0, 43077.0, 43113.0, 43146.0, 43108.0, 43114.0, 43143.0, 43163.0, 43172.0, 43111.0, 43076.0, 43054.0, 43054.0, 43085.0, 43128.0, 43113.0, 43105.0, 43118.0, 43102.0, 43093.0, 43070.0, 43077.0, 43158.0, 43214.0, 43174.0, 43100.0, 43098.0, 43062.0, 43055.0, 43065.0, 43059.0, 43095.0, 43167.0, 43209.0, 43188.0, 43127.0, 43049.0, 43064.0, 43083.0, 43093.0, 43110.0, 43101.0, 43088.0, 43083.0, 43100.0, 43072.0, 43089.0, 43068.0, 43001.0, 43035.0, 43090.0, 43073.0, 43053.0, 43026.0, 43018.0, 43048.0, 43072.0, 43081.0, 43094.0, 43059.0, 42973.0, 42992.0, 43073.0, 43138.0, 43155.0, 43151.0, 43034.0, 43054.0, 43100.0, 43160.0, 43194.0, 43171.0, 43074.0, 43053.0, 43062.0, 43080.0, 43078.0, 43057.0, 43043.0, 43064.0, 43146.0, 43167.0, 43106.0, 43033.0, 43043.0, 43112.0, 43171.0, 43105.0, 43037.0, 43003.0, 42990.0, 43013.0, 43032.0, 43053.0, 43045.0, 43034.0, 42999.0, 43020.0, 43070.0, 43063.0, 43082.0, 43107.0, 43063.0, 43042.0, 43040.0, 43043.0, 43083.0, 43121.0, 43072.0, 43019.0, 43034.0, 43056.0, 43073.0, 43063.0, 43044.0, 43066.0, 43094.0, 43066.0, 43054.0, 43011.0, 42999.0, 43056.0, 43069.0, 43072.0, 43081.0, 43069.0, 43017.0, 43027.0, 43132.0, 43140.0, 43097.0, 43041.0, 42997.0, 43034.0, 43076.0, 43116.0, 43121.0, 43101.0, 43000.0, 42999.0, 43061.0, 43081.0, 43069.0, 43042.0, 43006.0, 43067.0, 43115.0, 43107.0, 43090.0, 43086.0, 43081.0, 43056.0, 43062.0, 43032.0, 43043.0, 43035.0]
    },
    "slices": {}
  }
}