{
  "AcquisitionMatrixPE": 116,
  "AcquisitionNumber": 1,
  "AcquisitionTime": "16:29:57.435000",
  "BandwidthPerPixelPhaseEncode": 18.539,
  "BaseResolution": 116,
  "BodyPartExamined": "HEAD",
  "ConsistencyInfo": "N4_VD13D_LATEST_20130810",
  "ConversionSoftware": "dcm2niix",
  "ConversionSoftwareVersion": "v1.0.20190410  (JP2:OpenJPEG) (JP-LS:CharLS) GCC5.5.0",
  "DerivedVendorReportedEchoSpacing": 0.000930006,
  "DeviceSerialNumber": "66014",
  "DwellTime": 3e-06,
  "EchoTime": 0.03,
  "EchoTrainLength": 50,
  "EffectiveEchoSpacing": 0.000465003,
  "FlipAngle": 81,
  "ImageComments": "Unaliased_MB3_PE4",
  "ImageOrientationPatientDICOM": [0.999914, 0.0116789, 0.00592324, -0.0104714, 0.984713, -0.173869],
  "ImageType": [
    "ORIGINAL",
    "PRIMARY",
    "M",
    "MB",
    "ND",
    "MOSAIC"
],
  "ImagingFrequency": 123.261,
  "InPlanePhaseEncodingDirectionDICOM": "COL",
  "InstitutionAddress": "Yiheyuan_Road_5_Beijing_Haidian_CN_100871",
  "InstitutionName": "Peking_Univeristy",
  "InstitutionalDepartmentName": "Department",
  "MRAcquisitionType": "2D",
  "MagneticFieldStrength": 3,
  "Manufacturer": "Siemens",
  "ManufacturersModelName": "Prisma",
  "Modality": "MR",
  "MultibandAccelerationFactor": 3,
  "ParallelReductionFactorInPlane": 2,
  "PartialFourier": 0.875,
  "PatientPosition": "HFS",
  "PercentPhaseFOV": 100,
  "PhaseEncodingDirection": "j-",
  "PhaseEncodingSteps": 101,
  "PhaseResolution": 1,
  "PixelBandwidth": 1435,
  "ProcedureStepDescription": "Research_Projects_64CH",
  "ProtocolName": "mbep2d_bold_MB3_learn5",
  "PulseSequenceDetails": "%CustomerSeq%_cmrr_mbep2d_bold",
  "ReceiveCoilActiveElements": "HC1-7",
  "ReceiveCoilName": "HeadNeck_64",
  "ReconMatrixPE": 116,
  "RefLinesPE": 44,
  "RepetitionTime": 2,
  "SAR": 0.0592674,
  "ScanOptions": "PFP_FS",
  "ScanningSequence": "EP",
  "SequenceName": "epfid2d1_116",
  "SequenceVariant": "SK_SS",
  "SeriesDescription": "mbep2d_bold_MB3_learn5",
  "SeriesNumber": 10,
  "ShimSetting": [-3452, -2101, -1913, 431, -26, -196, 92, 11],
  "SliceThickness": 1.9,
  "SliceTiming": [0, 0.9075, 1.815, 0.7425, 1.65, 0.5775, 1.485, 0.4125, 1.32, 0.2475, 1.155, 0.0825, 0.99, 1.8975, 0.825, 1.7325, 0.66, 1.5675, 0.495, 1.4025, 0.33, 1.2375, 0.165, 1.0725, 0, 0.9075, 1.815, 0.7425, 1.65, 0.5775, 1.485, 0.4125, 1.32, 0.2475, 1.155, 0.0825, 0.99, 1.8975, 0.825, 1.7325, 0.66, 1.5675, 0.495, 1.4025, 0.33, 1.2375, 0.165, 1.0725, 0, 0.9075, 1.815, 0.7425, 1.65, 0.5775, 1.485, 0.4125, 1.32, 0.2475, 1.155, 0.0825, 0.99, 1.8975, 0.825, 1.7325, 0.66, 1.5675, 0.495, 1.4025, 0.33, 1.2375, 0.165, 1.0725],
  "SoftwareVersions": "syngo_MR_D13D",
  "SpacingBetweenSlices": 1.9,
  "StationName": "AWP66014",
  "TaskName": "updating",
  "TotalReadoutTime": 0.0534753,
  "TxRefAmp": 227.343,
  "WipMemBlock": "e20335f5-bee3-496f-8e2a-1ec9f8f097b9||Sequence: vd13d/master r/0735857; Nov 19 2014 09:21:40 by eja",
  "dcmmeta_affine": [
    [-1.896389126777649, -0.019859636202454567, 0.014940253458917141, 109.46166229248047],
    [-0.022149724885821342, 1.8675594329833984, -0.33020442724227905, -85.05558776855469],
    [0.011233721859753132, 0.32975107431411743, 1.871026873588562, -86.68954467773438],
    [0.0, 0.0, 0.0, 1.0]
],
  "dcmmeta_reorient_transform": [
    [0.0, -1.0, 0.0, 115.0],
    [1.0, 0.0, 0.0, 0.0],
    [0.0, 0.0, 1.0, 0.0],
    [0.0, 0.0, 0.0, 1.0]
],
  "dcmmeta_shape": [116, 116, 72, 218],
  "dcmmeta_slice_dim": 2,
  "dcmmeta_version": 0.6,
  "global": {
    "const": {
      "AcquisitionMatrix": [116, 0, 0, 116],
      "AngioFlag": "N",
      "BitsAllocated": 16,
      "BitsStored": 16,
      "BodyPartExamined": "HEAD",
      "Columns": 1044,
      "EchoNumbers": 1,
      "EchoTime": 30.0,
      "EchoTrainLength": 50,
      "FlipAngle": 81.0,
      "HighBit": 15,
      "ImageOrientationPatient": [0.99991425507213, 0.01167894628213, 0.00592323537288, -0.0104714444594, 0.98471316006512, -0.1738687471787],
      "ImagePositionPatient": [-977.88747807642, -1006.5388060131, 99.023877177566],
      "ImageType": [
        "ORIGINAL",
        "PRIMARY",
        "M",
        "MB",
        "ND",
        "MOSAIC"
],
      "ImagedNucleus": "1H",
      "ImagingFrequency": 123.260567,
      "InPlanePhaseEncodingDirection": "COL",
      "LargestImagePixelValue": 65535,
      "MRAcquisitionType": "2D",
      "MagneticFieldStrength": 3.0,
      "Manufacturer": "SIEMENS",
      "ManufacturerModelName": "Prisma",
      "Modality": "MR",
      "NumberOfAverages": 1.0,
      "NumberOfPhaseEncodingSteps": 101,
      "PercentPhaseFieldOfView": 100.0,
      "PercentSampling": 100.0,
      "PerformedProcedureStepStartTime": "153238.720000",
      "PhotometricInterpretation": "MONOCHROME2",
      "PixelBandwidth": 1435.0,
      "PixelRepresentation": 0,
      "PixelSpacing": [1.8965517282486, 1.8965517282486],
      "ProtocolName": "mbep2d_bold_MB3_learn5",
      "RepetitionTime": 2000.0,
      "Rows": 1044,
      "SAR": 0.05926735234461,
      "SamplesPerPixel": 1,
      "ScanOptions": [
        "PFP",
        "FS"
],
      "ScanningSequence": "EP",
      "SequenceName": "epfid2d1_116",
      "SequenceVariant": [
        "SK",
        "SS"
],
      "SeriesDescription": "mbep2d_bold_MB3_learn5",
      "SeriesNumber": 10,
      "SeriesTime": "163013.142000",
      "SliceLocation": -69.724926382814,
      "SliceThickness": 1.8999999761581,
      "SmallestImagePixelValue": 0,
      "SoftwareVersions": "syngo MR D13D",
      "SpacingBetweenSlices": 1.8999999708769,
      "SpecificCharacterSet": "ISO_IR 100",
      "StudyID": "1",
      "StudyTime": "153238.649000",
      "TimeOfLastCalibration": ["123723.000000", "123723.000000"],
      "TransmitCoilName": "Body",
      "VariableFlipAngleFlag": "N",
      "WindowCenterWidthExplanation": "Algo1",
      "dBdt": 0.0},
    "slices": {}
  },
  "time": {
    "samples": {
      "AcquisitionNumber": [1, 2, 3, 4, 5, 6, 7, 8, 9, 10, 11, 12, 13, 14, 15, 16, 17, 18, 19, 20, 21, 22, 23, 24, 25, 26, 27, 28, 29, 30, 31, 32, 33, 34, 35, 36, 37, 38, 39, 40, 41, 42, 43, 44, 45, 46, 47, 48, 49, 50, 51, 52, 53, 54, 55, 56, 57, 58, 59, 60, 61, 62, 63, 64, 65, 66, 67, 68, 69, 70, 71, 72, 73, 74, 75, 76, 77, 78, 79, 80, 81, 82, 83, 84, 85, 86, 87, 88, 89, 90, 91, 92, 93, 94, 95, 96, 97, 98, 99, 100, 101, 102, 103, 104, 105, 106, 107, 108, 109, 110, 111, 112, 113, 114, 115, 116, 117, 118, 119, 120, 121, 122, 123, 124, 125, 126, 127, 128, 129, 130, 131, 132, 133, 134, 135, 136, 137, 138, 139, 140, 141, 142, 143, 144, 145, 146, 147, 148, 149, 150, 151, 152, 153, 154, 155, 156, 157, 158, 159, 160, 161, 162, 163, 164, 165, 166, 167, 168, 169, 170, 171, 172, 173, 174, 175, 176, 177, 178, 179, 180, 181, 182, 183, 184, 185, 186, 187, 188, 189, 190, 191, 192, 193, 194, 195, 196, 197, 198, 199, 200, 201, 202, 203, 204, 205, 206, 207, 208, 209, 210, 211, 212, 213, 214, 215, 216, 217, 218],
      "AcquisitionTime": ["162957.435000", "162959.435000", "163001.435000", "163003.435000", "163005.435000", "163007.435000", "163009.435000", "163011.435000", "163013.435000", "163015.435000", "163017.435000", "163019.435000", "163021.435000", "163023.435000", "163025.435000", "163027.435000", "163029.435000", "163031.435000", "163033.435000", "163035.435000", "163037.435000", "163039.435000", "163041.435000", "163043.435000", "163045.435000", "163047.435000", "163049.435000", "163051.435000", "163053.435000", "163055.435000", "163057.435000", "163059.435000", "163101.435000", "163103.435000", "163105.435000", "163107.435000", "163109.435000", "163111.435000", "163113.435000", "163115.435000", "163117.435000", "163119.435000", "163121.435000", "163123.435000", "163125.435000", "163127.435000", "163129.435000", "163131.435000", "163133.435000", "163135.435000", "163137.435000", "163139.435000", "163141.435000", "163143.435000", "163145.435000", "163147.435000", "163149.435000", "163151.435000", "163153.435000", "163155.435000", "163157.435000", "163159.435000", "163201.435000", "163203.435000", "163205.435000", "163207.435000", "163209.435000", "163211.435000", "163213.435000", "163215.435000", "163217.435000", "163219.435000", "163221.435000", "163223.435000", "163225.435000", "163227.435000", "163229.435000", "163231.435000", "163233.435000", "163235.435000", "163237.435000", "163239.435000", "163241.435000", "163243.435000", "163245.435000", "163247.435000", "163249.435000", "163251.435000", "163253.435000", "163255.435000", "163257.435000", "163259.435000", "163301.435000", "163303.435000", "163305.435000", "163307.435000", "163309.435000", "163311.435000", "163313.435000", "163315.435000", "163317.435000", "163319.435000", "163321.435000", "163323.435000", "163325.435000", "163327.435000", "163329.435000", "163331.435000", "163333.435000", "163335.435000", "163337.435000", "163339.435000", "163341.435000", "163343.435000", "163345.435000", "163347.435000", "163349.435000", "163351.435000", "163353.435000", "163355.435000", "163357.435000", "163359.435000", "163401.435000", "163403.435000", "163405.435000", "163407.435000", "163409.435000", "163411.435000", "163413.435000", "163415.435000", "163417.435000", "163419.435000", "163421.435000", "163423.435000", "163425.435000", "163427.435000", "163429.435000", "163431.435000", "163433.435000", "163435.435000", "163437.435000", "163439.435000", "163441.435000", "163443.437500", "163445.437500", "163447.437500", "163449.437500", "163451.437500", "163453.437500", "163455.437500", "163457.437500", "163459.437500", "163501.437500", "163503.437500", "163505.437500", "163507.437500", "163509.437500", "163511.437500", "163513.437500", "163515.437500", "163517.437500", "163519.437500", "163521.437500", "163523.437500", "163525.437500", "163527.437500", "163529.437500", "163531.437500", "163533.437500", "163535.437500", "163537.437500", "163539.437500", "163541.437500", "163543.437500", "163545.437500", "163547.437500", "163549.437500", "163551.437500", "163553.437500", "163555.437500", "163557.437500", "163559.437500", "163601.437500", "163603.437500", "163605.437500", "163607.437500", "163609.437500", "163611.437500", "163613.437500", "163615.437500", "163617.437500", "163619.437500", "163621.437500", "163623.437500", "163625.437500", "163627.437500", "163629.437500", "163631.437500", "163633.437500", "163635.437500", "163637.437500", "163639.437500", "163641.437500", "163643.437500", "163645.437500", "163647.437500", "163649.437500", "163651.437500", "163653.437500", "163655.437500", "163657.437500", "163659.437500", "163701.437500", "163703.437500", "163705.437500", "163707.437500", "163709.437500", "163711.437500"],
      "ContentTime": ["163013.148000", "163014.141000", "163014.145000", "163015.142000", "163016.141000", "163016.145000", "163017.140000", "163018.142000", "163019.141000", "163019.144000", "163020.641000", "163022.642000", "163024.640000", "163026.640000", "163028.641000", "163030.641000", "163032.641000", "163034.642000", "163036.641000", "163038.641000", "163040.642000", "163042.640000", "163044.641000", "163046.642000", "163048.641000", "163050.642000", "163052.641000", "163054.641000", "163056.641000", "163058.642000", "163100.641000", "163102.641000", "163104.642000", "163106.641000", "163108.641000", "163110.640000", "163112.641000", "163114.642000", "163116.640000", "163118.641000", "163120.640000", "163122.642000", "163124.642000", "163126.641000", "163128.642000", "163130.642000", "163132.640000", "163134.641000", "163136.640000", "163138.642000", "163140.641000", "163142.642000", "163144.641000", "163146.642000", "163148.642000", "163150.642000", "163152.640000", "163154.640000", "163156.641000", "163158.641000", "163200.641000", "163202.640000", "163204.641000", "163206.640000", "163208.642000", "163210.641000", "163212.640000", "163214.642000", "163216.641000", "163218.640000", "163220.641000", "163222.642000", "163224.642000", "163226.641000", "163228.640000", "163230.642000", "163232.641000", "163234.642000", "163236.642000", "163238.642000", "163240.642000", "163242.642000", "163244.640000", "163246.641000", "163248.642000", "163250.642000", "163252.641000", "163254.642000", "163256.642000", "163258.641000", "163300.642000", "163302.641000", "163304.640000", "163306.642000", "163308.642000", "163310.641000", "163312.642000", "163314.641000", "163316.642000", "163318.642000", "163320.640000", "163322.641000", "163324.641000", "163326.641000", "163328.642000", "163330.642000", "163332.641000", "163334.641000", "163336.640000", "163338.641000", "163340.641000", "163342.642000", "163344.642000", "163346.643000", "163348.642000", "163350.641000", "163352.642000", "163354.640000", "163356.640000", "163358.642000", "163400.642000", "163402.650000", "163404.642000", "163406.641000", "163408.641000", "163410.642000", "163412.640000", "163414.641000", "163416.642000", "163418.642000", "163420.641000", "163422.641000", "163424.641000", "163426.642000", "163428.643000", "163430.640000", "163432.641000", "163434.640000", "163436.642000", "163438.641000", "163440.642000", "163442.641000", "163444.642000", "163446.641000", "163448.641000", "163450.641000", "163452.640000", "163454.642000", "163456.641000", "163458.641000", "163500.642000", "163502.642000", "163504.640000", "163506.641000", "163508.642000", "163510.641000", "163512.640000", "163514.641000", "163516.642000", "163518.642000", "163520.642000", "163522.640000", "163524.641000", "163526.642000", "163528.642000", "163530.642000", "163532.641000", "163534.642000", "163536.642000", "163538.641000", "163540.640000", "163542.641000", "163544.641000", "163546.642000", "163548.642000", "163550.642000", "163552.641000", "163554.641000", "163556.640000", "163558.640000", "163600.642000", "163602.641000", "163604.641000", "163606.642000", "163608.641000", "163610.641000", "163612.642000", "163614.640000", "163616.640000", "163618.642000", "163620.641000", "163622.641000", "163624.641000", "163626.641000", "163628.642000", "163630.641000", "163632.640000", "163634.640000", "163636.642000", "163638.642000", "163640.642000", "163642.640000", "163644.641000", "163646.642000", "163648.642000", "163650.640000", "163652.640000", "163654.642000", "163656.641000", "163658.641000", "163700.641000", "163702.641000", "163704.642000", "163706.640000", "163708.641000", "163710.642000", "163712.642000", "163714.432000"],
      "InstanceCreationTime": ["163013.148000", "163014.141000", "163014.145000", "163015.142000", "163016.141000", "163016.145000", "163017.140000", "163018.142000", "163019.141000", "163019.144000", "163020.641000", "163022.642000", "163024.640000", "163026.640000", "163028.641000", "163030.641000", "163032.641000", "163034.642000", "163036.641000", "163038.641000", "163040.642000", "163042.640000", "163044.641000", "163046.642000", "163048.641000", "163050.642000", "163052.641000", "163054.641000", "163056.641000", "163058.642000", "163100.641000", "163102.641000", "163104.642000", "163106.641000", "163108.641000", "163110.640000", "163112.641000", "163114.642000", "163116.640000", "163118.641000", "163120.640000", "163122.642000", "163124.642000", "163126.641000", "163128.642000", "163130.642000", "163132.640000", "163134.641000", "163136.640000", "163138.642000", "163140.641000", "163142.642000", "163144.641000", "163146.642000", "163148.642000", "163150.642000", "163152.640000", "163154.640000", "163156.641000", "163158.641000", "163200.641000", "163202.640000", "163204.641000", "163206.640000", "163208.642000", "163210.641000", "163212.640000", "163214.642000", "163216.641000", "163218.640000", "163220.641000", "163222.642000", "163224.642000", "163226.641000", "163228.640000", "163230.642000", "163232.641000", "163234.642000", "163236.642000", "163238.642000", "163240.642000", "163242.642000", "163244.640000", "163246.641000", "163248.642000", "163250.642000", "163252.641000", "163254.642000", "163256.642000", "163258.641000", "163300.642000", "163302.641000", "163304.640000", "163306.642000", "163308.642000", "163310.641000", "163312.642000", "163314.641000", "163316.642000", "163318.642000", "163320.640000", "163322.641000", "163324.641000", "163326.641000", "163328.642000", "163330.642000", "163332.641000", "163334.641000", "163336.640000", "163338.641000", "163340.641000", "163342.642000", "163344.642000", "163346.643000", "163348.642000", "163350.641000", "163352.642000", "163354.640000", "163356.640000", "163358.642000", "163400.642000", "163402.650000", "163404.642000", "163406.641000", "163408.641000", "163410.642000", "163412.640000", "163414.641000", "163416.642000", "163418.642000", "163420.641000", "163422.641000", "163424.641000", "163426.642000", "163428.643000", "163430.640000", "163432.641000", "163434.640000", "163436.642000", "163438.641000", "163440.642000", "163442.641000", "163444.642000", "163446.641000", "163448.641000", "163450.641000", "163452.640000", "163454.642000", "163456.641000", "163458.641000", "163500.642000", "163502.642000", "163504.640000", "163506.641000", "163508.642000", "163510.641000", "163512.640000", "163514.641000", "163516.642000", "163518.642000", "163520.642000", "163522.640000", "163524.641000", "163526.642000", "163528.642000", "163530.642000", "163532.641000", "163534.642000", "163536.642000", "163538.641000", "163540.640000", "163542.641000", "163544.641000", "163546.642000", "163548.642000", "163550.642000", "163552.641000", "163554.641000", "163556.640000", "163558.640000", "163600.642000", "163602.641000", "163604.641000", "163606.642000", "163608.641000", "163610.641000", "163612.642000", "163614.640000", "163616.640000", "163618.642000", "163620.641000", "163622.641000", "163624.641000", "163626.641000", "163628.642000", "163630.641000", "163632.640000", "163634.640000", "163636.642000", "163638.642000", "163640.642000", "163642.640000", "163644.641000", "163646.642000", "163648.642000", "163650.640000", "163652.640000", "163654.642000", "163656.641000", "163658.641000", "163700.641000", "163702.641000", "163704.642000", "163706.640000", "163708.641000", "163710.642000", "163712.642000", "163714.432000"],
      "InstanceNumber": [1, 2, 3, 4, 5, 6, 7, 8, 9, 10, 11, 12, 13, 14, 15, 16, 17, 18, 19, 20, 21, 22, 23, 24, 25, 26, 27, 28, 29, 30, 31, 32, 33, 34, 35, 36, 37, 38, 39, 40, 41, 42, 43, 44, 45, 46, 47, 48, 49, 50, 51, 52, 53, 54, 55, 56, 57, 58, 59, 60, 61, 62, 63, 64, 65, 66, 67, 68, 69, 70, 71, 72, 73, 74, 75, 76, 77, 78, 79, 80, 81, 82, 83, 84, 85, 86, 87, 88, 89, 90, 91, 92, 93, 94, 95, 96, 97, 98, 99, 100, 101, 102, 103, 104, 105, 106, 107, 108, 109, 110, 111, 112, 113, 114, 115, 116, 117, 118, 119, 120, 121, 122, 123, 124, 125, 126, 127, 128, 129, 130, 131, 132, 133, 134, 135, 136, 137, 138, 139, 140, 141, 142, 143, 144, 145, 146, 147, 148, 149, 150, 151, 152, 153, 154, 155, 156, 157, 158, 159, 160, 161, 162, 163, 164, 165, 166, 167, 168, 169, 170, 171, 172, 173, 174, 175, 176, 177, 178, 179, 180, 181, 182, 183, 184, 185, 186, 187, 188, 189, 190, 191, 192, 193, 194, 195, 196, 197, 198, 199, 200, 201, 202, 203, 204, 205, 206, 207, 208, 209, 210, 211, 212, 213, 214, 215, 216, 217, 218],
      "WindowCenter": [16918.0, 16875.0, 16877.0, 16872.0, 16865.0, 16862.0, 16884.0, 16864.0, 16860.0, 16851.0, 16835.0, 16865.0, 16852.0, 16840.0, 16851.0, 16847.0, 16851.0, 16841.0, 16846.0, 16835.0, 16857.0, 16856.0, 16847.0, 16848.0, 16855.0, 16844.0, 16856.0, 16853.0, 16848.0, 16851.0, 16850.0, 16855.0, 16847.0, 16847.0, 16836.0, 16854.0, 16854.0, 16848.0, 16853.0, 16850.0, 16855.0, 16845.0, 16853.0, 16837.0, 16845.0, 16856.0, 16849.0, 16853.0, 16850.0, 16854.0, 16853.0, 16838.0, 16835.0, 16840.0, 16845.0, 16842.0, 16841.0, 16851.0, 16851.0, 16861.0, 16837.0, 16845.0, 16850.0, 16833.0, 16868.0, 16882.0, 16861.0, 16844.0, 16844.0, 16851.0, 16866.0, 16873.0, 16875.0, 16866.0, 16880.0, 16873.0, 16855.0, 16853.0, 16872.0, 16850.0, 16853.0, 16858.0, 16871.0, 16864.0, 16859.0, 16867.0, 16868.0, 16860.0, 16856.0, 16841.0, 16840.0, 16847.0, 16839.0, 16835.0, 16854.0, 16846.0, 16838.0, 16841.0, 16849.0, 16820.0, 16849.0, 16846.0, 16855.0, 16849.0, 16838.0, 16845.0, 16854.0, 16836.0, 16862.0, 16861.0, 16846.0, 16859.0, 16846.0, 16842.0, 16842.0, 16852.0, 16843.0, 16852.0, 16871.0, 16862.0, 16850.0, 16857.0, 16838.0, 16833.0, 16835.0, 16836.0, 16854.0, 16850.0, 16858.0, 16864.0, 16857.0, 16863.0, 16856.0, 16858.0, 16847.0, 16866.0, 16836.0, 16846.0, 16854.0, 16863.0, 16857.0, 16857.0, 16863.0, 16872.0, 16855.0, 16847.0, 16849.0, 16864.0, 16848.0, 16846.0, 16854.0, 16832.0, 16850.0, 16849.0, 16846.0, 16858.0, 16840.0, 16863.0, 16862.0, 16845.0, 16854.0, 16845.0, 16851.0, 16857.0, 16852.0, 16866.0, 16825.0, 16824.0, 16843.0, 16841.0, 16857.0, 16841.0, 16815.0, 16817.0, 16832.0, 16818.0, 16833.0, 16837.0, 16848.0, 16848.0, 16839.0, 16850.0, 16842.0, 16842.0, 16863.0, 16859.0, 16849.0, 16857.0, 16844.0, 16860.0, 16853.0, 16852.0, 16853.0, 16841.0, 16837.0, 16844.0, 16833.0, 16837.0, 16840.0, 16850.0, 16843.0, 16839.0, 16869.0, 16844.0, 16859.0, 16846.0, 16848.0, 16853.0, 16854.0, 16842.0, 16849.0, 16841.0, 16849.0, 16855.0, 16855.0, 16852.0, 16852.0, 16847.0],
      "WindowWidth": [47732.0, 47607.0, 47568.0, 47616.0, 47688.0, 47699.0, 47676.0, 47635.0, 47582.0, 47574.0, 47551.0, 47534.0, 47564.0, 47556.0, 47575.0, 47533.0, 47447.0, 47428.0, 47470.0, 47513.0, 47555.0, 47568.0, 47561.0, 47587.0, 47604.0, 47624.0, 47594.0, 47578.0, 47574.0, 47577.0, 47590.0, 47593.0, 47587.0, 47598.0, 47591.0, 47551.0, 47551.0, 47547.0, 47577.0, 47588.0, 47604.0, 47597.0, 47552.0, 47567.0, 47573.0, 47567.0, 47573.0, 47600.0, 47640.0, 47588.0, 47488.0, 47373.0, 47319.0, 47349.0, 47391.0, 47402.0, 47428.0, 47460.0, 47511.0, 47544.0, 47526.0, 47480.0, 47510.0, 47576.0, 47576.0, 47559.0, 47531.0, 47557.0, 47584.0, 47603.0, 47612.0, 47643.0, 47656.0, 47663.0, 47621.0, 47603.0, 47602.0, 47575.0, 47526.0, 47574.0, 47589.0, 47593.0, 47564.0, 47583.0, 47580.0, 47572.0, 47574.0, 47581.0, 47564.0, 47526.0, 47498.0, 47492.0, 47383.0, 47341.0, 47368.0, 47416.0, 47448.0, 47463.0, 47429.0, 47436.0, 47468.0, 47505.0, 47499.0, 47457.0, 47447.0, 47454.0, 47499.0, 47561.0, 47517.0, 47489.0, 47492.0, 47489.0, 47478.0, 47426.0, 47426.0, 47483.0, 47567.0, 47600.0, 47563.0, 47504.0, 47456.0, 47461.0, 47422.0, 47407.0, 47395.0, 47435.0, 47512.0, 47586.0, 47566.0, 47543.0, 47538.0, 47492.0, 47488.0, 47475.0, 47468.0, 47442.0, 47421.0, 47454.0, 47549.0, 47558.0, 47566.0, 47580.0, 47596.0, 47563.0, 47552.0, 47532.0, 47495.0, 47493.0, 47494.0, 47480.0, 47472.0, 47508.0, 47521.0, 47521.0, 47507.0, 47527.0, 47592.0, 47595.0, 47569.0, 47557.0, 47562.0, 47571.0, 47574.0, 47513.0, 47484.0, 47480.0, 47527.0, 47462.0, 47565.0, 47563.0, 47459.0, 47252.0, 47195.0, 47237.0, 47222.0, 47254.0, 47327.0, 47382.0, 47393.0, 47392.0, 47449.0, 47442.0, 47464.0, 47516.0, 47505.0, 47502.0, 47545.0, 47564.0, 47617.0, 47591.0, 47546.0, 47494.0, 47482.0, 47487.0, 47511.0, 47541.0, 47520.0, 47509.0, 47499.0, 47520.0, 47554.0, 47576.0, 47544.0, 47554.0, 47540.0, 47544.0, 47519.0, 47508.0, 47483.0, 47499.0, 47505.0, 47537.0, 47570.0, 47523.0, 47497.0, 47493.0, 47457.0, 47377.0]
    },
    "slices": {}
  }
}