{
  "AcquisitionMatrixPE": 116,
  "AcquisitionNumber": 1,
  "AcquisitionTime": "15:56:25.090000",
  "BandwidthPerPixelPhaseEncode": 18.539,
  "BaseResolution": 116,
  "BodyPartExamined": "HEAD",
  "ConsistencyInfo": "N4_VD13D_LATEST_20130810",
  "ConversionSoftware": "dcm2niix",
  "ConversionSoftwareVersion": "v1.0.20190410  (JP2:OpenJPEG) (JP-LS:CharLS) GCC5.5.0",
  "DerivedVendorReportedEchoSpacing": 0.000930006,
  "DeviceSerialNumber": "66014",
  "DwellTime": 3e-06,
  "EchoTime": 0.03,
  "EchoTrainLength": 50,
  "EffectiveEchoSpacing": 0.000465003,
  "FlipAngle": 81,
  "ImageComments": "Unaliased_MB3_PE4",
  "ImageOrientationPatientDICOM": [0.999914, 0.0116789, 0.00592324, -0.0104714, 0.984713, -0.173869],
  "ImageType": [
    "ORIGINAL",
    "PRIMARY",
    "M",
    "MB",
    "ND",
    "MOSAIC"
],
  "ImagingFrequency": 123.261,
  "InPlanePhaseEncodingDirectionDICOM": "COL",
  "InstitutionAddress": "Yiheyuan_Road_5_Beijing_Haidian_CN_100871",
  "InstitutionName": "Peking_Univeristy",
  "InstitutionalDepartmentName": "Department",
  "MRAcquisitionType": "2D",
  "MagneticFieldStrength": 3,
  "Manufacturer": "Siemens",
  "ManufacturersModelName": "Prisma",
  "Modality": "MR",
  "MultibandAccelerationFactor": 3,
  "ParallelReductionFactorInPlane": 2,
  "PartialFourier": 0.875,
  "PatientPosition": "HFS",
  "PercentPhaseFOV": 100,
  "PhaseEncodingDirection": "j-",
  "PhaseEncodingSteps": 101,
  "PhaseResolution": 1,
  "PixelBandwidth": 1435,
  "ProcedureStepDescription": "Research_Projects_64CH",
  "ProtocolName": "mbep2d_bold_MB3_learn1",
  "PulseSequenceDetails": "%CustomerSeq%_cmrr_mbep2d_bold",
  "ReceiveCoilActiveElements": "HC1-7",
  "ReceiveCoilName": "HeadNeck_64",
  "ReconMatrixPE": 116,
  "RefLinesPE": 44,
  "RepetitionTime": 2,
  "SAR": 0.0592674,
  "ScanOptions": "PFP_FS",
  "ScanningSequence": "EP",
  "SequenceName": "epfid2d1_116",
  "SequenceVariant": "SK_SS",
  "SeriesDescription": "mbep2d_bold_MB3_learn1",
  "SeriesNumber": 6,
  "ShimSetting": [-3452, -2101, -1913, 431, -26, -196, 92, 11],
  "SliceThickness": 1.9,
  "SliceTiming": [0, 0.905, 1.8125, 0.74, 1.6475, 0.575, 1.4825, 0.4125, 1.3175, 0.2475, 1.1525, 0.0825, 0.9875, 1.895, 0.8225, 1.73, 0.6575, 1.565, 0.4925, 1.4, 0.33, 1.235, 0.165, 1.07, 0, 0.905, 1.8125, 0.74, 1.6475, 0.575, 1.4825, 0.4125, 1.3175, 0.2475, 1.1525, 0.0825, 0.9875, 1.895, 0.8225, 1.73, 0.6575, 1.565, 0.4925, 1.4, 0.33, 1.235, 0.165, 1.07, 0, 0.905, 1.8125, 0.74, 1.6475, 0.575, 1.4825, 0.4125, 1.3175, 0.2475, 1.1525, 0.0825, 0.9875, 1.895, 0.8225, 1.73, 0.6575, 1.565, 0.4925, 1.4, 0.33, 1.235, 0.165, 1.07],
  "SoftwareVersions": "syngo_MR_D13D",
  "SpacingBetweenSlices": 1.9,
  "StationName": "AWP66014",
  "TaskName": "updating",
  "TotalReadoutTime": 0.0534753,
  "TxRefAmp": 227.343,
  "WipMemBlock": "a35a3a66-498e-4110-83dc-d7fb95040647||Sequence: vd13d/master r/0735857; Nov 19 2014 09:21:40 by eja",
  "dcmmeta_affine": [
    [-1.896389126777649, -0.019859636202454567, 0.014940253458917141, 109.46166229248047],
    [-0.022149724885821342, 1.8675594329833984, -0.33020442724227905, -85.05558776855469],
    [0.011233721859753132, 0.32975107431411743, 1.871026873588562, -86.68954467773438],
    [0.0, 0.0, 0.0, 1.0]
],
  "dcmmeta_reorient_transform": [
    [0.0, -1.0, 0.0, 115.0],
    [1.0, 0.0, 0.0, 0.0],
    [0.0, 0.0, 1.0, 0.0],
    [0.0, 0.0, 0.0, 1.0]
],
  "dcmmeta_shape": [116, 116, 72, 218],
  "dcmmeta_slice_dim": 2,
  "dcmmeta_version": 0.6,
  "global": {
    "const": {
      "AcquisitionMatrix": [116, 0, 0, 116],
      "AngioFlag": "N",
      "BitsAllocated": 16,
      "BitsStored": 16,
      "BodyPartExamined": "HEAD",
      "Columns": 1044,
      "EchoNumbers": 1,
      "EchoTime": 30.0,
      "EchoTrainLength": 50,
      "FlipAngle": 81.0,
      "HighBit": 15,
      "ImageOrientationPatient": [0.99991425507213, 0.01167894628213, 0.00592323537288, -0.0104714444594, 0.98471316006512, -0.1738687471787],
      "ImagePositionPatient": [-977.88747807642, -1006.5388060131, 99.023877177566],
      "ImageType": [
        "ORIGINAL",
        "PRIMARY",
        "M",
        "MB",
        "ND",
        "MOSAIC"
],
      "ImagedNucleus": "1H",
      "ImagingFrequency": 123.26056,
      "InPlanePhaseEncodingDirection": "COL",
      "LargestImagePixelValue": 65535,
      "MRAcquisitionType": "2D",
      "MagneticFieldStrength": 3.0,
      "Manufacturer": "SIEMENS",
      "ManufacturerModelName": "Prisma",
      "Modality": "MR",
      "NumberOfAverages": 1.0,
      "NumberOfPhaseEncodingSteps": 101,
      "PercentPhaseFieldOfView": 100.0,
      "PercentSampling": 100.0,
      "PerformedProcedureStepStartTime": "153238.720000",
      "PhotometricInterpretation": "MONOCHROME2",
      "PixelBandwidth": 1435.0,
      "PixelRepresentation": 0,
      "PixelSpacing": [1.8965517282486, 1.8965517282486],
      "ProtocolName": "mbep2d_bold_MB3_learn1",
      "RepetitionTime": 2000.0,
      "Rows": 1044,
      "SAR": 0.05926735232955,
      "SamplesPerPixel": 1,
      "ScanOptions": [
        "PFP",
        "FS"
],
      "ScanningSequence": "EP",
      "SequenceName": "epfid2d1_116",
      "SequenceVariant": [
        "SK",
        "SS"
],
      "SeriesDescription": "mbep2d_bold_MB3_learn1",
      "SeriesNumber": 6,
      "SeriesTime": "155640.448000",
      "SliceLocation": -69.724926382814,
      "SliceThickness": 1.8999999761581,
      "SmallestImagePixelValue": 0,
      "SoftwareVersions": "syngo MR D13D",
      "SpacingBetweenSlices": 1.8999999708769,
      "SpecificCharacterSet": "ISO_IR 100",
      "StudyID": "1",
      "StudyTime": "153238.649000",
      "TimeOfLastCalibration": ["123723.000000", "123723.000000"],
      "TransmitCoilName": "Body",
      "VariableFlipAngleFlag": "N",
      "WindowCenterWidthExplanation": "Algo1",
      "dBdt": 0.0},
    "slices": {}
  },
  "time": {
    "samples": {
      "AcquisitionNumber": [1, 2, 3, 4, 5, 6, 7, 8, 9, 10, 11, 12, 13, 14, 15, 16, 17, 18, 19, 20, 21, 22, 23, 24, 25, 26, 27, 28, 29, 30, 31, 32, 33, 34, 35, 36, 37, 38, 39, 40, 41, 42, 43, 44, 45, 46, 47, 48, 49, 50, 51, 52, 53, 54, 55, 56, 57, 58, 59, 60, 61, 62, 63, 64, 65, 66, 67, 68, 69, 70, 71, 72, 73, 74, 75, 76, 77, 78, 79, 80, 81, 82, 83, 84, 85, 86, 87, 88, 89, 90, 91, 92, 93, 94, 95, 96, 97, 98, 99, 100, 101, 102, 103, 104, 105, 106, 107, 108, 109, 110, 111, 112, 113, 114, 115, 116, 117, 118, 119, 120, 121, 122, 123, 124, 125, 126, 127, 128, 129, 130, 131, 132, 133, 134, 135, 136, 137, 138, 139, 140, 141, 142, 143, 144, 145, 146, 147, 148, 149, 150, 151, 152, 153, 154, 155, 156, 157, 158, 159, 160, 161, 162, 163, 164, 165, 166, 167, 168, 169, 170, 171, 172, 173, 174, 175, 176, 177, 178, 179, 180, 181, 182, 183, 184, 185, 186, 187, 188, 189, 190, 191, 192, 193, 194, 195, 196, 197, 198, 199, 200, 201, 202, 203, 204, 205, 206, 207, 208, 209, 210, 211, 212, 213, 214, 215, 216, 217, 218],
      "AcquisitionTime": ["155625.090000", "155627.090000", "155629.090000", "155631.090000", "155633.090000", "155635.090000", "155637.090000", "155639.090000", "155641.090000", "155643.090000", "155645.090000", "155647.090000", "155649.090000", "155651.090000", "155653.090000", "155655.090000", "155657.090000", "155659.090000", "155701.090000", "155703.090000", "155705.090000", "155707.090000", "155709.090000", "155711.090000", "155713.090000", "155715.090000", "155717.090000", "155719.090000", "155721.090000", "155723.090000", "155725.090000", "155727.090000", "155729.090000", "155731.090000", "155733.090000", "155735.090000", "155737.090000", "155739.090000", "155741.090000", "155743.090000", "155745.090000", "155747.090000", "155749.090000", "155751.090000", "155753.090000", "155755.090000", "155757.090000", "155759.090000", "155801.090000", "155803.090000", "155805.090000", "155807.090000", "155809.090000", "155811.090000", "155813.090000", "155815.090000", "155817.090000", "155819.090000", "155821.090000", "155823.090000", "155825.090000", "155827.090000", "155829.090000", "155831.090000", "155833.090000", "155835.090000", "155837.090000", "155839.090000", "155841.090000", "155843.090000", "155845.090000", "155847.090000", "155849.090000", "155851.090000", "155853.090000", "155855.090000", "155857.090000", "155859.090000", "155901.090000", "155903.090000", "155905.090000", "155907.090000", "155909.090000", "155911.090000", "155913.090000", "155915.090000", "155917.090000", "155919.090000", "155921.090000", "155923.090000", "155925.090000", "155927.090000", "155929.090000", "155931.090000", "155933.090000", "155935.090000", "155937.090000", "155939.090000", "155941.090000", "155943.090000", "155945.090000", "155947.090000", "155949.090000", "155951.090000", "155953.090000", "155955.090000", "155957.090000", "155959.090000", "160001.090000", "160003.090000", "160005.090000", "160007.090000", "160009.090000", "160011.090000", "160013.090000", "160015.090000", "160017.090000", "160019.090000", "160021.090000", "160023.090000", "160025.090000", "160027.090000", "160029.090000", "160031.090000", "160033.090000", "160035.090000", "160037.090000", "160039.090000", "160041.090000", "160043.090000", "160045.090000", "160047.090000", "160049.090000", "160051.090000", "160053.090000", "160055.090000", "160057.090000", "160059.090000", "160101.090000", "160103.090000", "160105.090000", "160107.090000", "160109.090000", "160111.090000", "160113.090000", "160115.090000", "160117.090000", "160119.090000", "160121.090000", "160123.090000", "160125.090000", "160127.090000", "160129.090000", "160131.090000", "160133.090000", "160135.090000", "160137.090000", "160139.090000", "160141.090000", "160143.090000", "160145.090000", "160147.090000", "160149.090000", "160151.090000", "160153.090000", "160155.090000", "160157.090000", "160159.090000", "160201.090000", "160203.090000", "160205.090000", "160207.090000", "160209.090000", "160211.090000", "160213.090000", "160215.090000", "160217.090000", "160219.090000", "160221.090000", "160223.090000", "160225.090000", "160227.090000", "160229.090000", "160231.090000", "160233.090000", "160235.090000", "160237.090000", "160239.090000", "160241.090000", "160243.090000", "160245.090000", "160247.090000", "160249.090000", "160251.090000", "160253.090000", "160255.090000", "160257.090000", "160259.090000", "160301.090000", "160303.090000", "160305.090000", "160307.090000", "160309.090000", "160311.090000", "160313.090000", "160315.090000", "160317.090000", "160319.090000", "160321.090000", "160323.090000", "160325.090000", "160327.090000", "160329.090000", "160331.090000", "160333.090000", "160335.090000", "160337.090000", "160339.090000"],
      "ContentTime": ["155640.455000", "155641.446000", "155641.450000", "155642.445000", "155643.445000", "155643.449000", "155644.445000", "155645.444000", "155646.445000", "155647.446000", "155647.452000", "155649.445000", "155651.446000", "155653.446000", "155655.447000", "155657.446000", "155659.446000", "155701.446000", "155703.446000", "155705.446000", "155707.445000", "155709.446000", "155711.446000", "155713.445000", "155715.447000", "155717.446000", "155719.446000", "155721.445000", "155723.446000", "155725.446000", "155727.445000", "155729.445000", "155731.446000", "155733.453000", "155735.446000", "155737.446000", "155739.446000", "155741.446000", "155743.446000", "155745.445000", "155747.445000", "155749.446000", "155751.447000", "155753.446000", "155755.446000", "155757.444000", "155759.446000", "155801.446000", "155803.446000", "155805.446000", "155807.446000", "155809.446000", "155811.446000", "155813.446000", "155815.446000", "155817.446000", "155819.446000", "155821.446000", "155823.447000", "155825.447000", "155827.446000", "155829.446000", "155831.446000", "155833.446000", "155835.446000", "155837.447000", "155839.446000", "155841.446000", "155843.447000", "155845.446000", "155847.446000", "155849.446000", "155851.447000", "155853.446000", "155855.446000", "155857.446000", "155859.446000", "155901.447000", "155903.447000", "155905.446000", "155907.446000", "155909.447000", "155911.446000", "155913.445000", "155915.446000", "155917.446000", "155919.446000", "155921.446000", "155923.446000", "155925.446000", "155927.446000", "155929.446000", "155931.446000", "155933.446000", "155935.447000", "155937.446000", "155939.446000", "155941.446000", "155943.446000", "155945.446000", "155947.446000", "155949.446000", "155951.446000", "155953.447000", "155955.446000", "155957.446000", "155959.446000", "160001.448000", "160003.446000", "160005.446000", "160007.446000", "160009.446000", "160011.449000", "160013.446000", "160015.447000", "160017.445000", "160019.446000", "160021.448000", "160023.446000", "160025.447000", "160027.446000", "160029.446000", "160031.446000", "160033.446000", "160035.447000", "160037.446000", "160039.446000", "160041.447000", "160043.446000", "160045.447000", "160047.446000", "160049.447000", "160051.446000", "160053.446000", "160055.446000", "160057.447000", "160059.446000", "160101.446000", "160103.447000", "160105.447000", "160107.445000", "160109.446000", "160111.447000", "160113.446000", "160115.446000", "160117.446000", "160119.446000", "160121.447000", "160123.446000", "160125.446000", "160127.446000", "160129.446000", "160131.446000", "160133.446000", "160135.446000", "160137.446000", "160139.446000", "160141.446000", "160143.446000", "160145.446000", "160147.446000", "160149.446000", "160151.445000", "160153.445000", "160155.447000", "160157.446000", "160159.446000", "160201.447000", "160203.446000", "160205.446000", "160207.446000", "160209.446000", "160211.446000", "160213.446000", "160215.446000", "160217.446000", "160219.447000", "160221.446000", "160223.446000", "160225.446000", "160227.446000", "160229.447000", "160231.447000", "160233.446000", "160235.447000", "160237.446000", "160239.446000", "160241.447000", "160243.445000", "160245.446000", "160247.447000", "160249.447000", "160251.446000", "160253.447000", "160255.446000", "160257.446000", "160259.446000", "160301.446000", "160303.447000", "160305.447000", "160307.446000", "160309.446000", "160311.447000", "160313.446000", "160315.446000", "160317.446000", "160319.446000", "160321.446000", "160323.447000", "160325.457000", "160327.446000", "160329.446000", "160331.446000", "160333.447000", "160335.446000", "160337.445000", "160339.446000", "160341.298000"],
      "InstanceCreationTime": ["155640.455000", "155641.446000", "155641.450000", "155642.445000", "155643.445000", "155643.449000", "155644.445000", "155645.444000", "155646.445000", "155647.446000", "155647.452000", "155649.445000", "155651.446000", "155653.446000", "155655.447000", "155657.446000", "155659.446000", "155701.446000", "155703.446000", "155705.446000", "155707.445000", "155709.446000", "155711.446000", "155713.445000", "155715.447000", "155717.446000", "155719.446000", "155721.445000", "155723.446000", "155725.446000", "155727.445000", "155729.445000", "155731.446000", "155733.453000", "155735.446000", "155737.446000", "155739.446000", "155741.446000", "155743.446000", "155745.445000", "155747.445000", "155749.446000", "155751.447000", "155753.446000", "155755.446000", "155757.444000", "155759.446000", "155801.446000", "155803.446000", "155805.446000", "155807.446000", "155809.446000", "155811.446000", "155813.446000", "155815.446000", "155817.446000", "155819.446000", "155821.446000", "155823.447000", "155825.447000", "155827.446000", "155829.446000", "155831.446000", "155833.446000", "155835.446000", "155837.447000", "155839.446000", "155841.446000", "155843.447000", "155845.446000", "155847.446000", "155849.446000", "155851.447000", "155853.446000", "155855.446000", "155857.446000", "155859.446000", "155901.447000", "155903.447000", "155905.446000", "155907.446000", "155909.447000", "155911.446000", "155913.445000", "155915.446000", "155917.446000", "155919.446000", "155921.446000", "155923.446000", "155925.446000", "155927.446000", "155929.446000", "155931.446000", "155933.446000", "155935.447000", "155937.446000", "155939.446000", "155941.446000", "155943.446000", "155945.446000", "155947.446000", "155949.446000", "155951.446000", "155953.447000", "155955.446000", "155957.446000", "155959.446000", "160001.448000", "160003.446000", "160005.446000", "160007.446000", "160009.446000", "160011.449000", "160013.446000", "160015.447000", "160017.445000", "160019.446000", "160021.448000", "160023.446000", "160025.447000", "160027.446000", "160029.446000", "160031.446000", "160033.446000", "160035.447000", "160037.446000", "160039.446000", "160041.447000", "160043.446000", "160045.447000", "160047.446000", "160049.447000", "160051.446000", "160053.446000", "160055.446000", "160057.447000", "160059.446000", "160101.446000", "160103.447000", "160105.447000", "160107.445000", "160109.446000", "160111.447000", "160113.446000", "160115.446000", "160117.446000", "160119.446000", "160121.447000", "160123.446000", "160125.446000", "160127.446000", "160129.446000", "160131.446000", "160133.446000", "160135.446000", "160137.446000", "160139.446000", "160141.446000", "160143.446000", "160145.446000", "160147.446000", "160149.446000", "160151.445000", "160153.445000", "160155.447000", "160157.446000", "160159.446000", "160201.447000", "160203.446000", "160205.446000", "160207.446000", "160209.446000", "160211.446000", "160213.446000", "160215.446000", "160217.446000", "160219.447000", "160221.446000", "160223.446000", "160225.446000", "160227.446000", "160229.447000", "160231.447000", "160233.446000", "160235.447000", "160237.446000", "160239.446000", "160241.447000", "160243.445000", "160245.446000", "160247.447000", "160249.447000", "160251.446000", "160253.447000", "160255.446000", "160257.446000", "160259.446000", "160301.446000", "160303.447000", "160305.447000", "160307.446000", "160309.446000", "160311.447000", "160313.446000", "160315.446000", "160317.446000", "160319.446000", "160321.446000", "160323.447000", "160325.457000", "160327.446000", "160329.446000", "160331.446000", "160333.447000", "160335.446000", "160337.445000", "160339.446000", "160341.298000"],
      "InstanceNumber": [1, 2, 3, 4, 5, 6, 7, 8, 9, 10, 11, 12, 13, 14, 15, 16, 17, 18, 19, 20, 21, 22, 23, 24, 25, 26, 27, 28, 29, 30, 31, 32, 33, 34, 35, 36, 37, 38, 39, 40, 41, 42, 43, 44, 45, 46, 47, 48, 49, 50, 51, 52, 53, 54, 55, 56, 57, 58, 59, 60, 61, 62, 63, 64, 65, 66, 67, 68, 69, 70, 71, 72, 73, 74, 75, 76, 77, 78, 79, 80, 81, 82, 83, 84, 85, 86, 87, 88, 89, 90, 91, 92, 93, 94, 95, 96, 97, 98, 99, 100, 101, 102, 103, 104, 105, 106, 107, 108, 109, 110, 111, 112, 113, 114, 115, 116, 117, 118, 119, 120, 121, 122, 123, 124, 125, 126, 127, 128, 129, 130, 131, 132, 133, 134, 135, 136, 137, 138, 139, 140, 141, 142, 143, 144, 145, 146, 147, 148, 149, 150, 151, 152, 153, 154, 155, 156, 157, 158, 159, 160, 161, 162, 163, 164, 165, 166, 167, 168, 169, 170, 171, 172, 173, 174, 175, 176, 177, 178, 179, 180, 181, 182, 183, 184, 185, 186, 187, 188, 189, 190, 191, 192, 193, 194, 195, 196, 197, 198, 199, 200, 201, 202, 203, 204, 205, 206, 207, 208, 209, 210, 211, 212, 213, 214, 215, 216, 217, 218],
      "WindowCenter": [16700.0, 16674.0, 16672.0, 16665.0, 16678.0, 16684.0, 16657.0, 16674.0, 16673.0, 16661.0, 16661.0, 16671.0, 16669.0, 16669.0, 16665.0, 16654.0, 16656.0, 16664.0, 16668.0, 16663.0, 16658.0, 16660.0, 16664.0, 16666.0, 16654.0, 16657.0, 16666.0, 16666.0, 16666.0, 16667.0, 16662.0, 16673.0, 16669.0, 16663.0, 16664.0, 16666.0, 16681.0, 16684.0, 16677.0, 16679.0, 16674.0, 16677.0, 16668.0, 16699.0, 16683.0, 16691.0, 16702.0, 16676.0, 16683.0, 16699.0, 16690.0, 16683.0, 16679.0, 16693.0, 16676.0, 16703.0, 16689.0, 16688.0, 16694.0, 16685.0, 16670.0, 16689.0, 16687.0, 16676.0, 16692.0, 16696.0, 16692.0, 16682.0, 16692.0, 16695.0, 16699.0, 16694.0, 16687.0, 16700.0, 16706.0, 16701.0, 16699.0, 16691.0, 16708.0, 16706.0, 16688.0, 16694.0, 16702.0, 16708.0, 16716.0, 16703.0, 16715.0, 16707.0, 16700.0, 16719.0, 16710.0, 16717.0, 16723.0, 16711.0, 16714.0, 16717.0, 16690.0, 16684.0, 16701.0, 16673.0, 16689.0, 16699.0, 16713.0, 16704.0, 16718.0, 16708.0, 16707.0, 16713.0, 16719.0, 16726.0, 16709.0, 16730.0, 16734.0, 16744.0, 16723.0, 16717.0, 16710.0, 16690.0, 16722.0, 16721.0, 16719.0, 16715.0, 16729.0, 16710.0, 16713.0, 16728.0, 16718.0, 16721.0, 16730.0, 16712.0, 16718.0, 16718.0, 16714.0, 16719.0, 16732.0, 16733.0, 16744.0, 16755.0, 16720.0, 16737.0, 16732.0, 16715.0, 16725.0, 16735.0, 16725.0, 16733.0, 16746.0, 16736.0, 16722.0, 16731.0, 16724.0, 16713.0, 16734.0, 16735.0, 16744.0, 16731.0, 16736.0, 16721.0, 16739.0, 16725.0, 16720.0, 16730.0, 16754.0, 16755.0, 16744.0, 16728.0, 16723.0, 16722.0, 16740.0, 16747.0, 16750.0, 16751.0, 16745.0, 16742.0, 16753.0, 16739.0, 16747.0, 16752.0, 16741.0, 16739.0, 16724.0, 16749.0, 16733.0, 16730.0, 16748.0, 16730.0, 16739.0, 16759.0, 16754.0, 16730.0, 16757.0, 16733.0, 16748.0, 16760.0, 16742.0, 16757.0, 16751.0, 16751.0, 16753.0, 16746.0, 16735.0, 16739.0, 16729.0, 16729.0, 16720.0, 16724.0, 16740.0, 16735.0, 16751.0, 16751.0, 16747.0, 16742.0, 16746.0, 16759.0, 16746.0, 16756.0, 16741.0, 16736.0],
      "WindowWidth": [47323.0, 47288.0, 47336.0, 47356.0, 47340.0, 47319.0, 47313.0, 47260.0, 47232.0, 47198.0, 47185.0, 47218.0, 47230.0, 47178.0, 47160.0, 47127.0, 47115.0, 47173.0, 47138.0, 47082.0, 47065.0, 47079.0, 47109.0, 47085.0, 47049.0, 47051.0, 47084.0, 47098.0, 47124.0, 47086.0, 47082.0, 47115.0, 47074.0, 47030.0, 47057.0, 47084.0, 47070.0, 47099.0, 47092.0, 47056.0, 47091.0, 47146.0, 47193.0, 47228.0, 47282.0, 47300.0, 47281.0, 47263.0, 47189.0, 47149.0, 47129.0, 47126.0, 47096.0, 47118.0, 47158.0, 47153.0, 47142.0, 47115.0, 47081.0, 47062.0, 47065.0, 47065.0, 47063.0, 47094.0, 47130.0, 47121.0, 47093.0, 47112.0, 47171.0, 47187.0, 47163.0, 47146.0, 47129.0, 47138.0, 47169.0, 47124.0, 47073.0, 47093.0, 47169.0, 47157.0, 47104.0, 47095.0, 47113.0, 47133.0, 47177.0, 47179.0, 47189.0, 47169.0, 47165.0, 47165.0, 47160.0, 47190.0, 47195.0, 47172.0, 47109.0, 46970.0, 46910.0, 46945.0, 46933.0, 46977.0, 47053.0, 47088.0, 47085.0, 47116.0, 47115.0, 47134.0, 47144.0, 47150.0, 47166.0, 47184.0, 47250.0, 47252.0, 47243.0, 47249.0, 47248.0, 47205.0, 47162.0, 47079.0, 47283.0, 47232.0, 47216.0, 47187.0, 47172.0, 47199.0, 47162.0, 47160.0, 47192.0, 47195.0, 47160.0, 47136.0, 47126.0, 47114.0, 47124.0, 47140.0, 47240.0, 47294.0, 47276.0, 47206.0, 47179.0, 47151.0, 47163.0, 47190.0, 47171.0, 47165.0, 47210.0, 47216.0, 47199.0, 47205.0, 47168.0, 47149.0, 47170.0, 47175.0, 47216.0, 47231.0, 47238.0, 47229.0, 47180.0, 47181.0, 47169.0, 47160.0, 47183.0, 47215.0, 47284.0, 47232.0, 47171.0, 47122.0, 47094.0, 47119.0, 47208.0, 47265.0, 47215.0, 47176.0, 47173.0, 47198.0, 47206.0, 47196.0, 47189.0, 47152.0, 47131.0, 47142.0, 47170.0, 47164.0, 47179.0, 47176.0, 47200.0, 47228.0, 47248.0, 47186.0, 47219.0, 47254.0, 47235.0, 47270.0, 47255.0, 47251.0, 47303.0, 47274.0, 47255.0, 47267.0, 47295.0, 47291.0, 47218.0, 47106.0, 46993.0, 46955.0, 46987.0, 47081.0, 47082.0, 47103.0, 47125.0, 47179.0, 47215.0, 47224.0, 47241.0, 47262.0, 47267.0, 47247.0, 47249.0, 47298.0]
    },
    "slices": {}
  }
}