{
  "AcquisitionMatrixPE": 116,
  "AcquisitionNumber": 1,
  "AcquisitionTime": "11:05:23.502500",
  "BandwidthPerPixelPhaseEncode": 18.539,
  "BaseResolution": 116,
  "BodyPartExamined": "HEAD",
  "ConsistencyInfo": "N4_VD13D_LATEST_20130810",
  "ConversionSoftware": "dcm2niix",
  "ConversionSoftwareVersion": "v1.0.20190410  (JP2:OpenJPEG) (JP-LS:CharLS) GCC5.5.0",
  "DerivedVendorReportedEchoSpacing": 0.000930006,
  "DeviceSerialNumber": "66014",
  "DwellTime": 3e-06,
  "EchoTime": 0.03,
  "EchoTrainLength": 50,
  "EffectiveEchoSpacing": 0.000465003,
  "FlipAngle": 81,
  "ImageComments": "Unaliased_MB3_PE4",
  "ImageOrientationPatientDICOM": [0.999754, -0.0105224, 0.0195245, 0.0122149, 0.995984, -0.0886991],
  "ImageType": [
    "ORIGINAL",
    "PRIMARY",
    "M",
    "MB",
    "ND",
    "MOSAIC"
],
  "ImagingFrequency": 123.261,
  "InPlanePhaseEncodingDirectionDICOM": "COL",
  "InstitutionAddress": "Yiheyuan_Road_5_Beijing_Haidian_CN_100871",
  "InstitutionName": "Peking_University",
  "InstitutionalDepartmentName": "Department",
  "MRAcquisitionType": "2D",
  "MagneticFieldStrength": 3,
  "Manufacturer": "Siemens",
  "ManufacturersModelName": "Prisma",
  "Modality": "MR",
  "MultibandAccelerationFactor": 3,
  "ParallelReductionFactorInPlane": 2,
  "PartialFourier": 0.875,
  "PatientPosition": "HFS",
  "PercentPhaseFOV": 100,
  "PhaseEncodingDirection": "j-",
  "PhaseEncodingSteps": 101,
  "PhaseResolution": 1,
  "PixelBandwidth": 1435,
  "ProcedureStepDescription": "Research_Projects_64CH",
  "ProtocolName": "mbep2d_bold_MB3_loca2",
  "PulseSequenceDetails": "%CustomerSeq%_cmrr_mbep2d_bold",
  "ReceiveCoilActiveElements": "HC1-6",
  "ReceiveCoilName": "HeadNeck_64",
  "ReconMatrixPE": 116,
  "RefLinesPE": 44,
  "RepetitionTime": 2,
  "SAR": 0.0634491,
  "ScanOptions": "PFP_FS",
  "ScanningSequence": "EP",
  "SequenceName": "epfid2d1_116",
  "SequenceVariant": "SK_SS",
  "SeriesDescription": "mbep2d_bold_MB3_loca2",
  "SeriesNumber": 10,
  "ShimSetting": [-3462, -2097, -1953, 354, -46, -188, -49, 19],
  "SliceThickness": 1.9,
  "SliceTiming": [0, 0.9075, 1.815, 0.7425, 1.65, 0.5775, 1.485, 0.4125, 1.32, 0.2475, 1.155, 0.0825, 0.99, 1.8975, 0.825, 1.7325, 0.66, 1.5675, 0.495, 1.4025, 0.33, 1.2375, 0.165, 1.0725, 0, 0.9075, 1.815, 0.7425, 1.65, 0.5775, 1.485, 0.4125, 1.32, 0.2475, 1.155, 0.0825, 0.99, 1.8975, 0.825, 1.7325, 0.66, 1.5675, 0.495, 1.4025, 0.33, 1.2375, 0.165, 1.0725, 0, 0.9075, 1.815, 0.7425, 1.65, 0.5775, 1.485, 0.4125, 1.32, 0.2475, 1.155, 0.0825, 0.99, 1.8975, 0.825, 1.7325, 0.66, 1.5675, 0.495, 1.4025, 0.33, 1.2375, 0.165, 1.0725],
  "SoftwareVersions": "syngo_MR_D13D",
  "SpacingBetweenSlices": 1.9,
  "StationName": "AWP66014",
  "TaskName": "localizer",
  "TotalReadoutTime": 0.0534753,
  "TxRefAmp": 229.226,
  "WipMemBlock": "7e7185df-f75c-4087-bf14-97c645837b6a||Sequence: vd13d/master r/0735857; Nov 19 2014 09:21:40 by eja",
  "dcmmeta_affine": [
    [-1.8960851430892944, 0.023166190832853317, 0.03517421334981918, 107.2668228149414],
    [0.019956186413764954, 1.8889343738555908, -0.16894003748893738, -99.27106475830078],
    [0.0370291993021965, 0.16822250187397003, 1.8921475410461426, -73.43358612060547],
    [0.0, 0.0, 0.0, 1.0]
],
  "dcmmeta_reorient_transform": [
    [0.0, -1.0, 0.0, 115.0],
    [1.0, 0.0, 0.0, 0.0],
    [0.0, 0.0, 1.0, 0.0],
    [0.0, 0.0, 0.0, 1.0]
],
  "dcmmeta_shape": [116, 116, 72, 164],
  "dcmmeta_slice_dim": 2,
  "dcmmeta_version": 0.6,
  "global": {
    "const": {
      "AcquisitionMatrix": [116, 0, 0, 116],
      "AngioFlag": "N",
      "BitsAllocated": 16,
      "BitsStored": 16,
      "BodyPartExamined": "HEAD",
      "Columns": 1044,
      "EchoNumbers": 1,
      "EchoTime": 30.0,
      "EchoTrainLength": 50,
      "FlipAngle": 81.0,
      "HighBit": 15,
      "ImageOrientationPatient": [0.99975400699723, -0.0105223529108, 0.01952448673368, 0.01221490052296, 0.99598356344491, -0.0886991406542],
      "ImagePositionPatient": [-1000.4635766574, -985.16225506911, 6.7856991251946],
      "ImageType": [
        "ORIGINAL",
        "PRIMARY",
        "M",
        "MB",
        "ND",
        "MOSAIC"
],
      "ImagedNucleus": "1H",
      "ImagingFrequency": 123.260563,
      "InPlanePhaseEncodingDirection": "COL",
      "LargestImagePixelValue": 65535,
      "MRAcquisitionType": "2D",
      "MagneticFieldStrength": 3.0,
      "Manufacturer": "SIEMENS",
      "ManufacturerModelName": "Prisma",
      "Modality": "MR",
      "NumberOfAverages": 1.0,
      "NumberOfPhaseEncodingSteps": 101,
      "PercentPhaseFieldOfView": 100.0,
      "PercentSampling": 100.0,
      "PerformedProcedureStepStartTime": "101401.765000",
      "PhotometricInterpretation": "MONOCHROME2",
      "PixelBandwidth": 1435.0,
      "PixelRepresentation": 0,
      "PixelSpacing": [1.8965517282486, 1.8965517282486],
      "ProtocolName": "mbep2d_bold_MB3_loca2",
      "RepetitionTime": 2000.0,
      "Rows": 1044,
      "SAR": 0.06344905715169,
      "SamplesPerPixel": 1,
      "ScanOptions": [
        "PFP",
        "FS"
],
      "ScanningSequence": "EP",
      "SequenceName": "epfid2d1_116",
      "SequenceVariant": [
        "SK",
        "SS"
],
      "SeriesDescription": "mbep2d_bold_MB3_loca2",
      "SeriesNumber": 10,
      "SeriesTime": "110535.844000",
      "SliceLocation": -62.317520112058,
      "SliceThickness": 1.8999999761581,
      "SmallestImagePixelValue": 0,
      "SoftwareVersions": "syngo MR D13D",
      "SpacingBetweenSlices": 1.9000000277953,
      "SpecificCharacterSet": "ISO_IR 100",
      "StudyID": "1",
      "StudyTime": "101401.665000",
      "TimeOfLastCalibration": ["123723.000000", "123723.000000"],
      "TransmitCoilName": "Body",
      "VariableFlipAngleFlag": "N",
      "WindowCenterWidthExplanation": "Algo1",
      "dBdt": 0.0},
    "slices": {}
  },
  "time": {
    "samples": {
      "AcquisitionNumber": [1, 2, 3, 4, 5, 6, 7, 8, 9, 10, 11, 12, 13, 14, 15, 16, 17, 18, 19, 20, 21, 22, 23, 24, 25, 26, 27, 28, 29, 30, 31, 32, 33, 34, 35, 36, 37, 38, 39, 40, 41, 42, 43, 44, 45, 46, 47, 48, 49, 50, 51, 52, 53, 54, 55, 56, 57, 58, 59, 60, 61, 62, 63, 64, 65, 66, 67, 68, 69, 70, 71, 72, 73, 74, 75, 76, 77, 78, 79, 80, 81, 82, 83, 84, 85, 86, 87, 88, 89, 90, 91, 92, 93, 94, 95, 96, 97, 98, 99, 100, 101, 102, 103, 104, 105, 106, 107, 108, 109, 110, 111, 112, 113, 114, 115, 116, 117, 118, 119, 120, 121, 122, 123, 124, 125, 126, 127, 128, 129, 130, 131, 132, 133, 134, 135, 136, 137, 138, 139, 140, 141, 142, 143, 144, 145, 146, 147, 148, 149, 150, 151, 152, 153, 154, 155, 156, 157, 158, 159, 160, 161, 162, 163, 164],
      "AcquisitionTime": ["110523.502500", "110525.502500", "110527.502500", "110529.502500", "110531.502500", "110533.502500", "110535.502500", "110537.502500", "110539.502500", "110541.502500", "110543.502500", "110545.502500", "110547.502500", "110549.502500", "110551.502500", "110553.502500", "110555.502500", "110557.502500", "110559.502500", "110601.502500", "110603.502500", "110605.502500", "110607.502500", "110609.502500", "110611.502500", "110613.502500", "110615.502500", "110617.502500", "110619.502500", "110621.502500", "110623.505000", "110625.505000", "110627.505000", "110629.505000", "110631.505000", "110633.505000", "110635.505000", "110637.505000", "110639.505000", "110641.505000", "110643.505000", "110645.505000", "110647.505000", "110649.505000", "110651.505000", "110653.505000", "110655.505000", "110657.505000", "110659.505000", "110701.505000", "110703.505000", "110705.505000", "110707.505000", "110709.505000", "110711.505000", "110713.505000", "110715.505000", "110717.505000", "110719.505000", "110721.505000", "110723.505000", "110725.505000", "110727.505000", "110729.505000", "110731.505000", "110733.505000", "110735.505000", "110737.505000", "110739.505000", "110741.505000", "110743.505000", "110745.505000", "110747.505000", "110749.505000", "110751.505000", "110753.505000", "110755.505000", "110757.505000", "110759.505000", "110801.505000", "110803.505000", "110805.505000", "110807.505000", "110809.505000", "110811.505000", "110813.505000", "110815.505000", "110817.505000", "110819.505000", "110821.505000", "110823.505000", "110825.505000", "110827.505000", "110829.505000", "110831.505000", "110833.505000", "110835.505000", "110837.505000", "110839.505000", "110841.505000", "110843.505000", "110845.505000", "110847.505000", "110849.505000", "110851.505000", "110853.505000", "110855.505000", "110857.505000", "110859.505000", "110901.505000", "110903.505000", "110905.505000", "110907.505000", "110909.505000", "110911.505000", "110913.505000", "110915.505000", "110917.505000", "110919.505000", "110921.505000", "110923.505000", "110925.505000", "110927.505000", "110929.505000", "110931.505000", "110933.505000", "110935.505000", "110937.505000", "110939.505000", "110941.505000", "110943.505000", "110945.505000", "110947.505000", "110949.505000", "110951.505000", "110953.505000", "110955.505000", "110957.505000", "110959.505000", "111001.505000", "111003.505000", "111005.505000", "111007.505000", "111009.505000", "111011.505000", "111013.505000", "111015.505000", "111017.505000", "111019.505000", "111021.505000", "111023.505000", "111025.505000", "111027.505000", "111029.505000", "111031.505000", "111033.505000", "111035.505000", "111037.505000", "111039.505000", "111041.505000", "111043.505000", "111045.505000", "111047.505000", "111049.505000"],
      "ContentTime": ["110535.850000", "110536.842000", "110536.846000", "110537.843000", "110537.847000", "110538.843000", "110539.842000", "110540.844000", "110542.844000", "110544.843000", "110546.843000", "110548.842000", "110550.843000", "110552.843000", "110554.843000", "110556.842000", "110558.843000", "110600.843000", "110602.843000", "110604.842000", "110606.843000", "110608.843000", "110610.843000", "110612.844000", "110614.843000", "110616.843000", "110618.843000", "110620.843000", "110622.843000", "110624.843000", "110626.843000", "110628.843000", "110630.844000", "110632.843000", "110634.844000", "110636.843000", "110638.843000", "110640.843000", "110642.843000", "110644.843000", "110646.843000", "110648.843000", "110650.844000", "110652.843000", "110654.843000", "110656.842000", "110658.843000", "110700.844000", "110702.843000", "110704.842000", "110706.843000", "110708.844000", "110710.843000", "110712.843000", "110714.843000", "110716.844000", "110718.843000", "110720.844000", "110722.844000", "110724.843000", "110726.845000", "110728.843000", "110730.843000", "110732.843000", "110734.843000", "110736.844000", "110738.844000", "110740.843000", "110742.845000", "110744.843000", "110746.843000", "110748.844000", "110750.842000", "110752.843000", "110754.844000", "110756.843000", "110758.844000", "110800.844000", "110802.843000", "110804.843000", "110806.843000", "110808.843000", "110810.843000", "110812.843000", "110814.843000", "110816.844000", "110818.845000", "110820.843000", "110822.851000", "110824.843000", "110826.843000", "110828.843000", "110830.842000", "110832.844000", "110834.842000", "110836.844000", "110838.843000", "110840.843000", "110842.843000", "110844.843000", "110846.844000", "110848.844000", "110850.844000", "110852.844000", "110854.844000", "110856.843000", "110858.843000", "110900.844000", "110902.843000", "110904.843000", "110906.843000", "110908.843000", "110910.845000", "110912.843000", "110914.843000", "110916.844000", "110918.843000", "110920.843000", "110922.863000", "110924.843000", "110926.843000", "110928.844000", "110930.843000", "110932.843000", "110934.844000", "110936.843000", "110938.843000", "110940.843000", "110942.843000", "110944.843000", "110946.844000", "110948.842000", "110950.843000", "110952.843000", "110954.843000", "110956.843000", "110958.843000", "111000.842000", "111002.844000", "111004.844000", "111006.843000", "111008.843000", "111010.842000", "111012.842000", "111014.842000", "111016.842000", "111018.843000", "111020.844000", "111022.842000", "111024.842000", "111026.841000", "111028.842000", "111030.842000", "111032.841000", "111034.842000", "111036.841000", "111038.842000", "111040.842000", "111042.842000", "111044.841000", "111046.841000", "111048.841000", "111050.841000", "111052.754000"],
      "InstanceCreationTime": ["110535.850000", "110536.842000", "110536.846000", "110537.843000", "110537.847000", "110538.843000", "110539.842000", "110540.844000", "110542.844000", "110544.843000", "110546.843000", "110548.842000", "110550.843000", "110552.843000", "110554.843000", "110556.842000", "110558.843000", "110600.843000", "110602.843000", "110604.842000", "110606.843000", "110608.843000", "110610.843000", "110612.844000", "110614.843000", "110616.843000", "110618.843000", "110620.843000", "110622.843000", "110624.843000", "110626.843000", "110628.843000", "110630.844000", "110632.843000", "110634.844000", "110636.843000", "110638.843000", "110640.843000", "110642.843000", "110644.843000", "110646.843000", "110648.843000", "110650.844000", "110652.843000", "110654.843000", "110656.842000", "110658.843000", "110700.844000", "110702.843000", "110704.842000", "110706.843000", "110708.844000", "110710.843000", "110712.843000", "110714.843000", "110716.844000", "110718.843000", "110720.844000", "110722.844000", "110724.843000", "110726.845000", "110728.843000", "110730.843000", "110732.843000", "110734.843000", "110736.844000", "110738.844000", "110740.843000", "110742.845000", "110744.843000", "110746.843000", "110748.844000", "110750.842000", "110752.843000", "110754.844000", "110756.843000", "110758.844000", "110800.844000", "110802.843000", "110804.843000", "110806.843000", "110808.843000", "110810.843000", "110812.843000", "110814.843000", "110816.844000", "110818.845000", "110820.843000", "110822.851000", "110824.843000", "110826.843000", "110828.843000", "110830.842000", "110832.844000", "110834.842000", "110836.844000", "110838.843000", "110840.843000", "110842.843000", "110844.843000", "110846.844000", "110848.844000", "110850.844000", "110852.844000", "110854.844000", "110856.843000", "110858.843000", "110900.844000", "110902.843000", "110904.843000", "110906.843000", "110908.843000", "110910.845000", "110912.843000", "110914.843000", "110916.844000", "110918.843000", "110920.843000", "110922.863000", "110924.843000", "110926.843000", "110928.844000", "110930.843000", "110932.843000", "110934.844000", "110936.843000", "110938.843000", "110940.843000", "110942.843000", "110944.843000", "110946.844000", "110948.842000", "110950.843000", "110952.843000", "110954.843000", "110956.843000", "110958.843000", "111000.842000", "111002.844000", "111004.844000", "111006.843000", "111008.843000", "111010.842000", "111012.842000", "111014.842000", "111016.842000", "111018.843000", "111020.844000", "111022.842000", "111024.842000", "111026.841000", "111028.842000", "111030.842000", "111032.841000", "111034.842000", "111036.841000", "111038.842000", "111040.842000", "111042.842000", "111044.841000", "111046.841000", "111048.841000", "111050.841000", "111052.754000"],
      "InstanceNumber": [1, 2, 3, 4, 5, 6, 7, 8, 9, 10, 11, 12, 13, 14, 15, 16, 17, 18, 19, 20, 21, 22, 23, 24, 25, 26, 27, 28, 29, 30, 31, 32, 33, 34, 35, 36, 37, 38, 39, 40, 41, 42, 43, 44, 45, 46, 47, 48, 49, 50, 51, 52, 53, 54, 55, 56, 57, 58, 59, 60, 61, 62, 63, 64, 65, 66, 67, 68, 69, 70, 71, 72, 73, 74, 75, 76, 77, 78, 79, 80, 81, 82, 83, 84, 85, 86, 87, 88, 89, 90, 91, 92, 93, 94, 95, 96, 97, 98, 99, 100, 101, 102, 103, 104, 105, 106, 107, 108, 109, 110, 111, 112, 113, 114, 115, 116, 117, 118, 119, 120, 121, 122, 123, 124, 125, 126, 127, 128, 129, 130, 131, 132, 133, 134, 135, 136, 137, 138, 139, 140, 141, 142, 143, 144, 145, 146, 147, 148, 149, 150, 151, 152, 153, 154, 155, 156, 157, 158, 159, 160, 161, 162, 163, 164],
      "WindowCenter": [18433.0, 18412.0, 18417.0, 18405.0, 18394.0, 18375.0, 18343.0, 18336.0, 18321.0, 18311.0, 18338.0, 18339.0, 18328.0, 18335.0, 18320.0, 18308.0, 18327.0, 18324.0, 18342.0, 18332.0, 18327.0, 18333.0, 18351.0, 18356.0, 18379.0, 18399.0, 18396.0, 18416.0, 18417.0, 18388.0, 18359.0, 18374.0, 18361.0, 18364.0, 18369.0, 18355.0, 18352.0, 18358.0, 18370.0, 18389.0, 18379.0, 18388.0, 18382.0, 18378.0, 18384.0, 18397.0, 18374.0, 18378.0, 18371.0, 18353.0, 18339.0, 18349.0, 18320.0, 18326.0, 18319.0, 18317.0, 18354.0, 18358.0, 18379.0, 18353.0, 18361.0, 18354.0, 18368.0, 18367.0, 18385.0, 18394.0, 18388.0, 18354.0, 18345.0, 18333.0, 18337.0, 18334.0, 18329.0, 18320.0, 18321.0, 18331.0, 18366.0, 18376.0, 18353.0, 18319.0, 18345.0, 18386.0, 18380.0, 18351.0, 18335.0, 18342.0, 18334.0, 18371.0, 18357.0, 18317.0, 18310.0, 18301.0, 18318.0, 18326.0, 18337.0, 18333.0, 18311.0, 18354.0, 18379.0, 18385.0, 18381.0, 18360.0, 18347.0, 18346.0, 18333.0, 18356.0, 18373.0, 18372.0, 18334.0, 18332.0, 18287.0, 18323.0, 18329.0, 18340.0, 18316.0, 18316.0, 18350.0, 18342.0, 18365.0, 18374.0, 18360.0, 18343.0, 18347.0, 18341.0, 18335.0, 18327.0, 18340.0, 18304.0, 18309.0, 18329.0, 18354.0, 18342.0, 18341.0, 18317.0, 18324.0, 18306.0, 18325.0, 18351.0, 18346.0, 18357.0, 18341.0, 18358.0, 18318.0, 18331.0, 18275.0, 18359.0, 18343.0, 18346.0, 18324.0, 18323.0, 18338.0, 18379.0, 18372.0, 18385.0, 18365.0, 18342.0, 18338.0, 18342.0, 18332.0, 18352.0, 18356.0, 18343.0, 18333.0, 18314.0],
      "WindowWidth": [50449.0, 50379.0, 50428.0, 50444.0, 50411.0, 50266.0, 50176.0, 50138.0, 50155.0, 50042.0, 50164.0, 50103.0, 50121.0, 50053.0, 50046.0, 50101.0, 50183.0, 50132.0, 50134.0, 50066.0, 50100.0, 50126.0, 50149.0, 50199.0, 50236.0, 50273.0, 50346.0, 50355.0, 50319.0, 50229.0, 50154.0, 50209.0, 50251.0, 50301.0, 50280.0, 50248.0, 50236.0, 50250.0, 50331.0, 50291.0, 50285.0, 50255.0, 50240.0, 50274.0, 50290.0, 50237.0, 50259.0, 50224.0, 50162.0, 50185.0, 50202.0, 50170.0, 50130.0, 50108.0, 50117.0, 50237.0, 50317.0, 50308.0, 50235.0, 50210.0, 50203.0, 50224.0, 50279.0, 50315.0, 50326.0, 50320.0, 50290.0, 50236.0, 50207.0, 50177.0, 50212.0, 50210.0, 50184.0, 50145.0, 50133.0, 50164.0, 50254.0, 50271.0, 50199.0, 50169.0, 50245.0, 50303.0, 50261.0, 50197.0, 50128.0, 50133.0, 50236.0, 50268.0, 50211.0, 50092.0, 50027.0, 50036.0, 50119.0, 50160.0, 50139.0, 50090.0, 50140.0, 50211.0, 50298.0, 50348.0, 50321.0, 50211.0, 50157.0, 50121.0, 50140.0, 50261.0, 50329.0, 50304.0, 50197.0, 50076.0, 50077.0, 50122.0, 50197.0, 50179.0, 50131.0, 50153.0, 50148.0, 50216.0, 50254.0, 50281.0, 50247.0, 50216.0, 50181.0, 50166.0, 50199.0, 50182.0, 50165.0, 50135.0, 50138.0, 50196.0, 50149.0, 50142.0, 50166.0, 50177.0, 50071.0, 50038.0, 50146.0, 50187.0, 50243.0, 50235.0, 50214.0, 50187.0, 50202.0, 50184.0, 50046.0, 50118.0, 50179.0, 50121.0, 50084.0, 50086.0, 50179.0, 50274.0, 50236.0, 50242.0, 50218.0, 50167.0, 50104.0, 50082.0, 50116.0, 50198.0, 50212.0, 50166.0, 50089.0, 50019.0]
    },
    "slices": {}
  }
}