{
  "AcquisitionMatrixPE": 116,
  "AcquisitionNumber": 1,
  "AcquisitionTime": "10:58:57.832500",
  "BandwidthPerPixelPhaseEncode": 18.539,
  "BaseResolution": 116,
  "BodyPartExamined": "HEAD",
  "ConsistencyInfo": "N4_VD13D_LATEST_20130810",
  "ConversionSoftware": "dcm2niix",
  "ConversionSoftwareVersion": "v1.0.20190410  (JP2:OpenJPEG) (JP-LS:CharLS) GCC5.5.0",
  "DerivedVendorReportedEchoSpacing": 0.000930006,
  "DeviceSerialNumber": "66014",
  "DwellTime": 3e-06,
  "EchoTime": 0.03,
  "EchoTrainLength": 50,
  "EffectiveEchoSpacing": 0.000465003,
  "FlipAngle": 81,
  "ImageComments": "Unaliased_MB3_PE4",
  "ImageOrientationPatientDICOM": [0.999754, -0.0105224, 0.0195245, 0.0122149, 0.995984, -0.0886991],
  "ImageType": [
    "ORIGINAL",
    "PRIMARY",
    "M",
    "MB",
    "ND",
    "MOSAIC"
],
  "ImagingFrequency": 123.261,
  "InPlanePhaseEncodingDirectionDICOM": "COL",
  "InstitutionAddress": "Yiheyuan_Road_5_Beijing_Haidian_CN_100871",
  "InstitutionName": "Peking_University",
  "InstitutionalDepartmentName": "Department",
  "MRAcquisitionType": "2D",
  "MagneticFieldStrength": 3,
  "Manufacturer": "Siemens",
  "ManufacturersModelName": "Prisma",
  "Modality": "MR",
  "MultibandAccelerationFactor": 3,
  "ParallelReductionFactorInPlane": 2,
  "PartialFourier": 0.875,
  "PatientPosition": "HFS",
  "PercentPhaseFOV": 100,
  "PhaseEncodingDirection": "j-",
  "PhaseEncodingSteps": 101,
  "PhaseResolution": 1,
  "PixelBandwidth": 1435,
  "ProcedureStepDescription": "Research_Projects_64CH",
  "ProtocolName": "mbep2d_bold_MB3_loca1",
  "PulseSequenceDetails": "%CustomerSeq%_cmrr_mbep2d_bold",
  "ReceiveCoilActiveElements": "HC1-6",
  "ReceiveCoilName": "HeadNeck_64",
  "ReconMatrixPE": 116,
  "RefLinesPE": 44,
  "RepetitionTime": 2,
  "SAR": 0.0634491,
  "ScanOptions": "PFP_FS",
  "ScanningSequence": "EP",
  "SequenceName": "epfid2d1_116",
  "SequenceVariant": "SK_SS",
  "SeriesDescription": "mbep2d_bold_MB3_loca1",
  "SeriesNumber": 9,
  "ShimSetting": [-3462, -2097, -1953, 354, -46, -188, -49, 19],
  "SliceThickness": 1.9,
  "SliceTiming": [0, 0.9075, 1.815, 0.7425, 1.65, 0.5775, 1.485, 0.4125, 1.32, 0.2475, 1.155, 0.0825, 0.99, 1.8975, 0.825, 1.7325, 0.66, 1.5675, 0.495, 1.4025, 0.33, 1.2375, 0.165, 1.0725, 0, 0.9075, 1.815, 0.7425, 1.65, 0.5775, 1.485, 0.4125, 1.32, 0.2475, 1.155, 0.0825, 0.99, 1.8975, 0.825, 1.7325, 0.66, 1.5675, 0.495, 1.4025, 0.33, 1.2375, 0.165, 1.0725, 0, 0.9075, 1.815, 0.7425, 1.65, 0.5775, 1.485, 0.4125, 1.32, 0.2475, 1.155, 0.0825, 0.99, 1.8975, 0.825, 1.7325, 0.66, 1.5675, 0.495, 1.4025, 0.33, 1.2375, 0.165, 1.0725],
  "SoftwareVersions": "syngo_MR_D13D",
  "SpacingBetweenSlices": 1.9,
  "StationName": "AWP66014",
  "TaskName": "localizer",
  "TotalReadoutTime": 0.0534753,
  "TxRefAmp": 229.226,
  "WipMemBlock": "88b331fc-8a24-4e7d-ac7d-4a9fd9b3ce7c||Sequence: vd13d/master r/0735857; Nov 19 2014 09:21:40 by eja",
  "dcmmeta_affine": [
    [-1.8960851430892944, 0.023166190832853317, 0.03517421334981918, 107.2668228149414],
    [0.019956186413764954, 1.8889343738555908, -0.16894003748893738, -99.27106475830078],
    [0.0370291993021965, 0.16822250187397003, 1.8921475410461426, -73.43358612060547],
    [0.0, 0.0, 0.0, 1.0]
],
  "dcmmeta_reorient_transform": [
    [0.0, -1.0, 0.0, 115.0],
    [1.0, 0.0, 0.0, 0.0],
    [0.0, 0.0, 1.0, 0.0],
    [0.0, 0.0, 0.0, 1.0]
],
  "dcmmeta_shape": [116, 116, 72, 164],
  "dcmmeta_slice_dim": 2,
  "dcmmeta_version": 0.6,
  "global": {
    "const": {
      "AcquisitionMatrix": [116, 0, 0, 116],
      "AngioFlag": "N",
      "BitsAllocated": 16,
      "BitsStored": 16,
      "BodyPartExamined": "HEAD",
      "Columns": 1044,
      "EchoNumbers": 1,
      "EchoTime": 30.0,
      "EchoTrainLength": 50,
      "FlipAngle": 81.0,
      "HighBit": 15,
      "ImageOrientationPatient": [0.99975400699723, -0.0105223529108, 0.01952448673368, 0.01221490052296, 0.99598356344491, -0.0886991406542],
      "ImagePositionPatient": [-1000.4635766574, -985.16225506911, 6.7856991251946],
      "ImageType": [
        "ORIGINAL",
        "PRIMARY",
        "M",
        "MB",
        "ND",
        "MOSAIC"
],
      "ImagedNucleus": "1H",
      "ImagingFrequency": 123.26056,
      "InPlanePhaseEncodingDirection": "COL",
      "LargestImagePixelValue": 65535,
      "MRAcquisitionType": "2D",
      "MagneticFieldStrength": 3.0,
      "Manufacturer": "SIEMENS",
      "ManufacturerModelName": "Prisma",
      "Modality": "MR",
      "NumberOfAverages": 1.0,
      "NumberOfPhaseEncodingSteps": 101,
      "PercentPhaseFieldOfView": 100.0,
      "PercentSampling": 100.0,
      "PerformedProcedureStepStartTime": "101401.765000",
      "PhotometricInterpretation": "MONOCHROME2",
      "PixelBandwidth": 1435.0,
      "PixelRepresentation": 0,
      "PixelSpacing": [1.8965517282486, 1.8965517282486],
      "ProtocolName": "mbep2d_bold_MB3_loca1",
      "RepetitionTime": 2000.0,
      "Rows": 1044,
      "SAR": 0.06344905715169,
      "SamplesPerPixel": 1,
      "ScanOptions": [
        "PFP",
        "FS"
],
      "ScanningSequence": "EP",
      "SequenceName": "epfid2d1_116",
      "SequenceVariant": [
        "SK",
        "SS"
],
      "SeriesDescription": "mbep2d_bold_MB3_loca1",
      "SeriesNumber": 9,
      "SeriesTime": "105910.359000",
      "SliceLocation": -62.317520112058,
      "SliceThickness": 1.8999999761581,
      "SmallestImagePixelValue": 0,
      "SoftwareVersions": "syngo MR D13D",
      "SpacingBetweenSlices": 1.9000000277953,
      "SpecificCharacterSet": "ISO_IR 100",
      "StudyID": "1",
      "StudyTime": "101401.665000",
      "TimeOfLastCalibration": ["123723.000000", "123723.000000"],
      "TransmitCoilName": "Body",
      "VariableFlipAngleFlag": "N",
      "WindowCenterWidthExplanation": "Algo1",
      "dBdt": 0.0},
    "slices": {}
  },
  "time": {
    "samples": {
      "AcquisitionNumber": [1, 2, 3, 4, 5, 6, 7, 8, 9, 10, 11, 12, 13, 14, 15, 16, 17, 18, 19, 20, 21, 22, 23, 24, 25, 26, 27, 28, 29, 30, 31, 32, 33, 34, 35, 36, 37, 38, 39, 40, 41, 42, 43, 44, 45, 46, 47, 48, 49, 50, 51, 52, 53, 54, 55, 56, 57, 58, 59, 60, 61, 62, 63, 64, 65, 66, 67, 68, 69, 70, 71, 72, 73, 74, 75, 76, 77, 78, 79, 80, 81, 82, 83, 84, 85, 86, 87, 88, 89, 90, 91, 92, 93, 94, 95, 96, 97, 98, 99, 100, 101, 102, 103, 104, 105, 106, 107, 108, 109, 110, 111, 112, 113, 114, 115, 116, 117, 118, 119, 120, 121, 122, 123, 124, 125, 126, 127, 128, 129, 130, 131, 132, 133, 134, 135, 136, 137, 138, 139, 140, 141, 142, 143, 144, 145, 146, 147, 148, 149, 150, 151, 152, 153, 154, 155, 156, 157, 158, 159, 160, 161, 162, 163, 164],
      "AcquisitionTime": ["105857.832500", "105859.832500", "105901.832500", "105903.832500", "105905.832500", "105907.832500", "105909.832500", "105911.832500", "105913.832500", "105915.832500", "105917.832500", "105919.832500", "105921.832500", "105923.832500", "105925.832500", "105927.832500", "105929.832500", "105931.832500", "105933.832500", "105935.832500", "105937.832500", "105939.832500", "105941.832500", "105943.832500", "105945.832500", "105947.832500", "105949.832500", "105951.832500", "105953.832500", "105955.832500", "105957.832500", "105959.832500", "110001.832500", "110003.832500", "110005.832500", "110007.832500", "110009.832500", "110011.832500", "110013.832500", "110015.832500", "110017.832500", "110019.832500", "110021.832500", "110023.832500", "110025.832500", "110027.832500", "110029.832500", "110031.832500", "110033.832500", "110035.832500", "110037.832500", "110039.832500", "110041.832500", "110043.832500", "110045.832500", "110047.832500", "110049.832500", "110051.832500", "110053.832500", "110055.832500", "110057.832500", "110059.832500", "110101.832500", "110103.832500", "110105.832500", "110107.832500", "110109.832500", "110111.832500", "110113.832500", "110115.832500", "110117.832500", "110119.832500", "110121.832500", "110123.832500", "110125.832500", "110127.832500", "110129.832500", "110131.832500", "110133.832500", "110135.832500", "110137.832500", "110139.832500", "110141.832500", "110143.832500", "110145.832500", "110147.832500", "110149.832500", "110151.832500", "110153.832500", "110155.832500", "110157.832500", "110159.832500", "110201.832500", "110203.832500", "110205.832500", "110207.832500", "110209.832500", "110211.832500", "110213.832500", "110215.832500", "110217.832500", "110219.832500", "110221.832500", "110223.835000", "110225.835000", "110227.835000", "110229.835000", "110231.835000", "110233.835000", "110235.835000", "110237.835000", "110239.835000", "110241.835000", "110243.835000", "110245.835000", "110247.835000", "110249.835000", "110251.835000", "110253.835000", "110255.835000", "110257.835000", "110259.835000", "110301.835000", "110303.835000", "110305.835000", "110307.835000", "110309.835000", "110311.835000", "110313.835000", "110315.835000", "110317.835000", "110319.835000", "110321.835000", "110323.835000", "110325.835000", "110327.835000", "110329.835000", "110331.835000", "110333.835000", "110335.835000", "110337.835000", "110339.835000", "110341.835000", "110343.835000", "110345.835000", "110347.835000", "110349.835000", "110351.835000", "110353.835000", "110355.835000", "110357.835000", "110359.835000", "110401.835000", "110403.835000", "110405.835000", "110407.835000", "110409.835000", "110411.835000", "110413.835000", "110415.835000", "110417.835000", "110419.835000", "110421.835000", "110423.835000"],
      "ContentTime": ["105910.364000", "105911.358000", "105911.362000", "105912.359000", "105913.358000", "105913.362000", "105914.358000", "105915.357000", "105917.359000", "105919.359000", "105921.358000", "105923.358000", "105925.358000", "105927.359000", "105929.358000", "105931.357000", "105933.359000", "105935.359000", "105937.359000", "105939.358000", "105941.359000", "105943.358000", "105945.358000", "105947.359000", "105949.357000", "105951.359000", "105953.359000", "105955.359000", "105957.358000", "105959.358000", "110001.378000", "110003.358000", "110005.359000", "110007.357000", "110009.359000", "110011.359000", "110013.358000", "110015.357000", "110017.357000", "110019.358000", "110021.358000", "110023.358000", "110025.358000", "110027.359000", "110029.359000", "110031.358000", "110033.358000", "110035.357000", "110037.357000", "110039.358000", "110041.358000", "110043.359000", "110045.359000", "110047.359000", "110049.358000", "110051.358000", "110053.358000", "110055.358000", "110057.357000", "110059.358000", "110101.359000", "110103.359000", "110105.359000", "110107.358000", "110109.358000", "110111.359000", "110113.359000", "110115.358000", "110117.358000", "110119.359000", "110121.359000", "110123.358000", "110125.359000", "110127.357000", "110129.358000", "110131.358000", "110133.358000", "110135.359000", "110137.359000", "110139.359000", "110141.358000", "110143.358000", "110145.358000", "110147.358000", "110149.378000", "110151.359000", "110153.359000", "110155.359000", "110157.358000", "110159.357000", "110201.358000", "110203.358000", "110205.358000", "110207.358000", "110209.358000", "110211.359000", "110213.359000", "110215.359000", "110217.358000", "110219.374000", "110221.358000", "110223.358000", "110225.358000", "110227.358000", "110229.359000", "110231.359000", "110233.358000", "110235.358000", "110237.357000", "110239.358000", "110241.358000", "110243.358000", "110245.357000", "110247.358000", "110249.359000", "110251.358000", "110253.358000", "110255.359000", "110257.358000", "110259.359000", "110301.358000", "110303.359000", "110305.359000", "110307.359000", "110309.358000", "110311.358000", "110313.358000", "110315.358000", "110317.358000", "110319.358000", "110321.359000", "110323.359000", "110325.360000", "110327.358000", "110329.358000", "110331.357000", "110333.358000", "110335.358000", "110337.358000", "110339.359000", "110341.359000", "110343.358000", "110345.358000", "110347.358000", "110349.358000", "110351.359000", "110353.358000", "110355.358000", "110357.359000", "110359.359000", "110401.359000", "110403.358000", "110405.358000", "110407.358000", "110409.358000", "110411.358000", "110413.359000", "110415.359000", "110417.359000", "110419.359000", "110421.358000", "110423.358000", "110425.359000", "110426.884000"],
      "InstanceCreationTime": ["105910.364000", "105911.358000", "105911.362000", "105912.359000", "105913.358000", "105913.362000", "105914.358000", "105915.357000", "105917.359000", "105919.359000", "105921.358000", "105923.358000", "105925.358000", "105927.359000", "105929.358000", "105931.357000", "105933.359000", "105935.359000", "105937.359000", "105939.358000", "105941.359000", "105943.358000", "105945.358000", "105947.359000", "105949.357000", "105951.359000", "105953.359000", "105955.359000", "105957.358000", "105959.358000", "110001.378000", "110003.358000", "110005.359000", "110007.357000", "110009.359000", "110011.359000", "110013.358000", "110015.357000", "110017.357000", "110019.358000", "110021.358000", "110023.358000", "110025.358000", "110027.359000", "110029.359000", "110031.358000", "110033.358000", "110035.357000", "110037.357000", "110039.358000", "110041.358000", "110043.359000", "110045.359000", "110047.359000", "110049.358000", "110051.358000", "110053.358000", "110055.358000", "110057.357000", "110059.358000", "110101.359000", "110103.359000", "110105.359000", "110107.358000", "110109.358000", "110111.359000", "110113.359000", "110115.358000", "110117.358000", "110119.359000", "110121.359000", "110123.358000", "110125.359000", "110127.357000", "110129.358000", "110131.358000", "110133.358000", "110135.359000", "110137.359000", "110139.359000", "110141.358000", "110143.358000", "110145.358000", "110147.358000", "110149.378000", "110151.359000", "110153.359000", "110155.359000", "110157.358000", "110159.357000", "110201.358000", "110203.358000", "110205.358000", "110207.358000", "110209.358000", "110211.359000", "110213.359000", "110215.359000", "110217.358000", "110219.374000", "110221.358000", "110223.358000", "110225.358000", "110227.358000", "110229.359000", "110231.359000", "110233.358000", "110235.358000", "110237.357000", "110239.358000", "110241.358000", "110243.358000", "110245.357000", "110247.358000", "110249.359000", "110251.358000", "110253.358000", "110255.359000", "110257.358000", "110259.359000", "110301.358000", "110303.359000", "110305.359000", "110307.359000", "110309.358000", "110311.358000", "110313.358000", "110315.358000", "110317.358000", "110319.358000", "110321.359000", "110323.359000", "110325.360000", "110327.358000", "110329.358000", "110331.357000", "110333.358000", "110335.358000", "110337.358000", "110339.359000", "110341.359000", "110343.358000", "110345.358000", "110347.358000", "110349.358000", "110351.359000", "110353.358000", "110355.358000", "110357.359000", "110359.359000", "110401.359000", "110403.358000", "110405.358000", "110407.358000", "110409.358000", "110411.358000", "110413.359000", "110415.359000", "110417.359000", "110419.359000", "110421.358000", "110423.358000", "110425.359000", "110426.884000"],
      "InstanceNumber": [1, 2, 3, 4, 5, 6, 7, 8, 9, 10, 11, 12, 13, 14, 15, 16, 17, 18, 19, 20, 21, 22, 23, 24, 25, 26, 27, 28, 29, 30, 31, 32, 33, 34, 35, 36, 37, 38, 39, 40, 41, 42, 43, 44, 45, 46, 47, 48, 49, 50, 51, 52, 53, 54, 55, 56, 57, 58, 59, 60, 61, 62, 63, 64, 65, 66, 67, 68, 69, 70, 71, 72, 73, 74, 75, 76, 77, 78, 79, 80, 81, 82, 83, 84, 85, 86, 87, 88, 89, 90, 91, 92, 93, 94, 95, 96, 97, 98, 99, 100, 101, 102, 103, 104, 105, 106, 107, 108, 109, 110, 111, 112, 113, 114, 115, 116, 117, 118, 119, 120, 121, 122, 123, 124, 125, 126, 127, 128, 129, 130, 131, 132, 133, 134, 135, 136, 137, 138, 139, 140, 141, 142, 143, 144, 145, 146, 147, 148, 149, 150, 151, 152, 153, 154, 155, 156, 157, 158, 159, 160, 161, 162, 163, 164],
      "WindowCenter": [18504.0, 18481.0, 18450.0, 18466.0, 18444.0, 18463.0, 18449.0, 18457.0, 18463.0, 18466.0, 18451.0, 18452.0, 18433.0, 18425.0, 18407.0, 18428.0, 18437.0, 18435.0, 18427.0, 18405.0, 18411.0, 18390.0, 18413.0, 18408.0, 18404.0, 18409.0, 18408.0, 18439.0, 18423.0, 18415.0, 18385.0, 18380.0, 18390.0, 18395.0, 18380.0, 18366.0, 18359.0, 18351.0, 18392.0, 18400.0, 18417.0, 18404.0, 18369.0, 18397.0, 18399.0, 18405.0, 18393.0, 18406.0, 18388.0, 18396.0, 18409.0, 18409.0, 18386.0, 18385.0, 18365.0, 18364.0, 18363.0, 18359.0, 18358.0, 18374.0, 18359.0, 18366.0, 18378.0, 18380.0, 18372.0, 18378.0, 18358.0, 18367.0, 18351.0, 18352.0, 18374.0, 18355.0, 18330.0, 18329.0, 18299.0, 18327.0, 18346.0, 18354.0, 18352.0, 18352.0, 18353.0, 18340.0, 18348.0, 18356.0, 18378.0, 18363.0, 18328.0, 18353.0, 18319.0, 18309.0, 18306.0, 18287.0, 18299.0, 18301.0, 18352.0, 18338.0, 18341.0, 18311.0, 18332.0, 18329.0, 18323.0, 18317.0, 18305.0, 18328.0, 18287.0, 18301.0, 18308.0, 18273.0, 18253.0, 18263.0, 18289.0, 18299.0, 18298.0, 18296.0, 18303.0, 18312.0, 18287.0, 18296.0, 18285.0, 18294.0, 18296.0, 18322.0, 18292.0, 18288.0, 18291.0, 18287.0, 18298.0, 18278.0, 18247.0, 18278.0, 18315.0, 18331.0, 18302.0, 18308.0, 18311.0, 18303.0, 18316.0, 18317.0, 18340.0, 18312.0, 18329.0, 18313.0, 18326.0, 18285.0, 18298.0, 18291.0, 18308.0, 18329.0, 18316.0, 18318.0, 18317.0, 18341.0, 18325.0, 18338.0, 18334.0, 18352.0, 18345.0, 18341.0, 18310.0, 18346.0, 18331.0, 18326.0, 18309.0, 18305.0],
      "WindowWidth": [50845.0, 50640.0, 50636.0, 50573.0, 50560.0, 50510.0, 50550.0, 50602.0, 50615.0, 50629.0, 50585.0, 50572.0, 50539.0, 50522.0, 50512.0, 50474.0, 50517.0, 50574.0, 50472.0, 50367.0, 50442.0, 50406.0, 50441.0, 50487.0, 50508.0, 50499.0, 50499.0, 50551.0, 50519.0, 50455.0, 50378.0, 50340.0, 50405.0, 50431.0, 50458.0, 50413.0, 50387.0, 50444.0, 50466.0, 50507.0, 50469.0, 50415.0, 50371.0, 50398.0, 50506.0, 50521.0, 50514.0, 50461.0, 50453.0, 50482.0, 50525.0, 50513.0, 50524.0, 50497.0, 50427.0, 50391.0, 50379.0, 50413.0, 50424.0, 50409.0, 50388.0, 50369.0, 50435.0, 50449.0, 50444.0, 50400.0, 50377.0, 50334.0, 50410.0, 50470.0, 50411.0, 50303.0, 50242.0, 50278.0, 50274.0, 50290.0, 50346.0, 50327.0, 50338.0, 50302.0, 50315.0, 50321.0, 50361.0, 50389.0, 50389.0, 50312.0, 50057.0, 50365.0, 50320.0, 50254.0, 50215.0, 50195.0, 50261.0, 50311.0, 50326.0, 50307.0, 50261.0, 50270.0, 50293.0, 50315.0, 50312.0, 50260.0, 50242.0, 50193.0, 50184.0, 50204.0, 50183.0, 50139.0, 50092.0, 50147.0, 50222.0, 50252.0, 50262.0, 50249.0, 50254.0, 50211.0, 50210.0, 50214.0, 50232.0, 50237.0, 50262.0, 50239.0, 50212.0, 50187.0, 50237.0, 50293.0, 50227.0, 50094.0, 49911.0, 50050.0, 50284.0, 50244.0, 50228.0, 50196.0, 50174.0, 50218.0, 50261.0, 50286.0, 50263.0, 50270.0, 50304.0, 50307.0, 50264.0, 50230.0, 50200.0, 50197.0, 50229.0, 50241.0, 50258.0, 50235.0, 50260.0, 50250.0, 50230.0, 50272.0, 50320.0, 50341.0, 50327.0, 50262.0, 50235.0, 50290.0, 50306.0, 50240.0, 50183.0, 50169.0]
    },
    "slices": {}
  }
}