{
  "AcquisitionMatrixPE": 116,
  "AcquisitionNumber": 1,
  "AcquisitionTime": "10:36:16.592500",
  "BandwidthPerPixelPhaseEncode": 18.539,
  "BaseResolution": 116,
  "BodyPartExamined": "HEAD",
  "ConsistencyInfo": "N4_VD13D_LATEST_20130810",
  "ConversionSoftware": "dcm2niix",
  "ConversionSoftwareVersion": "v1.0.20190410  (JP2:OpenJPEG) (JP-LS:CharLS) GCC5.5.0",
  "DerivedVendorReportedEchoSpacing": 0.000930006,
  "DeviceSerialNumber": "66014",
  "DwellTime": 3e-06,
  "EchoTime": 0.03,
  "EchoTrainLength": 50,
  "EffectiveEchoSpacing": 0.000465003,
  "FlipAngle": 81,
  "ImageComments": "Unaliased_MB3_PE4",
  "ImageOrientationPatientDICOM": [0.999754, -0.0105224, 0.0195245, 0.0122149, 0.995984, -0.0886991],
  "ImageType": [
    "ORIGINAL",
    "PRIMARY",
    "M",
    "MB",
    "ND",
    "MOSAIC"
],
  "ImagingFrequency": 123.261,
  "InPlanePhaseEncodingDirectionDICOM": "COL",
  "InstitutionAddress": "Yiheyuan_Road_5_Beijing_Haidian_CN_100871",
  "InstitutionName": "Peking_University",
  "InstitutionalDepartmentName": "Department",
  "MRAcquisitionType": "2D",
  "MagneticFieldStrength": 3,
  "Manufacturer": "Siemens",
  "ManufacturersModelName": "Prisma",
  "Modality": "MR",
  "MultibandAccelerationFactor": 3,
  "ParallelReductionFactorInPlane": 2,
  "PartialFourier": 0.875,
  "PatientPosition": "HFS",
  "PercentPhaseFOV": 100,
  "PhaseEncodingDirection": "j-",
  "PhaseEncodingSteps": 101,
  "PhaseResolution": 1,
  "PixelBandwidth": 1435,
  "ProcedureStepDescription": "Research_Projects_64CH",
  "ProtocolName": "mbep2d_bold_MB3_test2",
  "PulseSequenceDetails": "%CustomerSeq%_cmrr_mbep2d_bold",
  "ReceiveCoilActiveElements": "HC1-6",
  "ReceiveCoilName": "HeadNeck_64",
  "ReconMatrixPE": 116,
  "RefLinesPE": 44,
  "RepetitionTime": 2,
  "SAR": 0.0646559,
  "ScanOptions": "PFP_FS",
  "ScanningSequence": "EP",
  "SequenceName": "epfid2d1_116",
  "SequenceVariant": "SK_SS",
  "SeriesDescription": "mbep2d_bold_MB3_test2",
  "SeriesNumber": 7,
  "ShimSetting": [-3462, -2097, -1953, 354, -46, -188, -49, 19],
  "SliceThickness": 1.9,
  "SliceTiming": [0, 0.9075, 1.815, 0.7425, 1.65, 0.5775, 1.485, 0.4125, 1.32, 0.2475, 1.155, 0.0825, 0.99, 1.8975, 0.825, 1.7325, 0.66, 1.5675, 0.495, 1.4025, 0.33, 1.2375, 0.165, 1.0725, 0, 0.9075, 1.815, 0.7425, 1.65, 0.5775, 1.485, 0.4125, 1.32, 0.2475, 1.155, 0.0825, 0.99, 1.8975, 0.825, 1.7325, 0.66, 1.5675, 0.495, 1.4025, 0.33, 1.2375, 0.165, 1.0725, 0, 0.9075, 1.815, 0.7425, 1.65, 0.5775, 1.485, 0.4125, 1.32, 0.2475, 1.155, 0.0825, 0.99, 1.8975, 0.825, 1.7325, 0.66, 1.5675, 0.495, 1.4025, 0.33, 1.2375, 0.165, 1.0725],
  "SoftwareVersions": "syngo_MR_D13D",
  "SpacingBetweenSlices": 1.9,
  "StationName": "AWP66014",
  "TaskName": "retrieval",
  "TotalReadoutTime": 0.0534753,
  "TxRefAmp": 229.226,
  "WipMemBlock": "e3e150f3-b1ea-4207-bc13-4b937b8fb571||Sequence: vd13d/master r/0735857; Nov 19 2014 09:21:40 by eja",
  "dcmmeta_affine": [
    [-1.8960851430892944, 0.023166190832853317, 0.03517421334981918, 107.2668228149414],
    [0.019956186413764954, 1.8889343738555908, -0.16894003748893738, -99.27106475830078],
    [0.0370291993021965, 0.16822250187397003, 1.8921475410461426, -73.43358612060547],
    [0.0, 0.0, 0.0, 1.0]
],
  "dcmmeta_reorient_transform": [
    [0.0, -1.0, 0.0, 115.0],
    [1.0, 0.0, 0.0, 0.0],
    [0.0, 0.0, 1.0, 0.0],
    [0.0, 0.0, 0.0, 1.0]
],
  "dcmmeta_shape": [116, 116, 72, 289],
  "dcmmeta_slice_dim": 2,
  "dcmmeta_version": 0.6,
  "global": {
    "const": {
      "AcquisitionMatrix": [116, 0, 0, 116],
      "AngioFlag": "N",
      "BitsAllocated": 16,
      "BitsStored": 16,
      "BodyPartExamined": "HEAD",
      "Columns": 1044,
      "EchoNumbers": 1,
      "EchoTime": 30.0,
      "EchoTrainLength": 50,
      "FlipAngle": 81.0,
      "HighBit": 15,
      "ImageOrientationPatient": [0.99975400699723, -0.0105223529108, 0.01952448673368, 0.01221490052296, 0.99598356344491, -0.0886991406542],
      "ImagePositionPatient": [-1000.4635766574, -985.16225506911, 6.7856991251946],
      "ImageType": [
        "ORIGINAL",
        "PRIMARY",
        "M",
        "MB",
        "ND",
        "MOSAIC"
],
      "ImagedNucleus": "1H",
      "ImagingFrequency": 123.260558,
      "InPlanePhaseEncodingDirection": "COL",
      "LargestImagePixelValue": 65535,
      "MRAcquisitionType": "2D",
      "MagneticFieldStrength": 3.0,
      "Manufacturer": "SIEMENS",
      "ManufacturerModelName": "Prisma",
      "Modality": "MR",
      "NumberOfAverages": 1.0,
      "NumberOfPhaseEncodingSteps": 101,
      "PercentPhaseFieldOfView": 100.0,
      "PercentSampling": 100.0,
      "PerformedProcedureStepStartTime": "101401.765000",
      "PhotometricInterpretation": "MONOCHROME2",
      "PixelBandwidth": 1435.0,
      "PixelRepresentation": 0,
      "PixelSpacing": [1.8965517282486, 1.8965517282486],
      "ProtocolName": "mbep2d_bold_MB3_test2",
      "RepetitionTime": 2000.0,
      "Rows": 1044,
      "SAR": 0.06465590025907,
      "SamplesPerPixel": 1,
      "ScanOptions": [
        "PFP",
        "FS"
],
      "ScanningSequence": "EP",
      "SequenceName": "epfid2d1_116",
      "SequenceVariant": [
        "SK",
        "SS"
],
      "SeriesDescription": "mbep2d_bold_MB3_test2",
      "SeriesNumber": 7,
      "SeriesTime": "103628.549000",
      "SliceLocation": -62.317520112058,
      "SliceThickness": 1.8999999761581,
      "SmallestImagePixelValue": 0,
      "SoftwareVersions": "syngo MR D13D",
      "SpacingBetweenSlices": 1.9000000277953,
      "SpecificCharacterSet": "ISO_IR 100",
      "StudyID": "1",
      "StudyTime": "101401.665000",
      "TimeOfLastCalibration": ["123723.000000", "123723.000000"],
      "TransmitCoilName": "Body",
      "VariableFlipAngleFlag": "N",
      "WindowCenterWidthExplanation": "Algo1",
      "dBdt": 0.0},
    "slices": {}
  },
  "time": {
    "samples": {
      "AcquisitionNumber": [1, 2, 3, 4, 5, 6, 7, 8, 9, 10, 11, 12, 13, 14, 15, 16, 17, 18, 19, 20, 21, 22, 23, 24, 25, 26, 27, 28, 29, 30, 31, 32, 33, 34, 35, 36, 37, 38, 39, 40, 41, 42, 43, 44, 45, 46, 47, 48, 49, 50, 51, 52, 53, 54, 55, 56, 57, 58, 59, 60, 61, 62, 63, 64, 65, 66, 67, 68, 69, 70, 71, 72, 73, 74, 75, 76, 77, 78, 79, 80, 81, 82, 83, 84, 85, 86, 87, 88, 89, 90, 91, 92, 93, 94, 95, 96, 97, 98, 99, 100, 101, 102, 103, 104, 105, 106, 107, 108, 109, 110, 111, 112, 113, 114, 115, 116, 117, 118, 119, 120, 121, 122, 123, 124, 125, 126, 127, 128, 129, 130, 131, 132, 133, 134, 135, 136, 137, 138, 139, 140, 141, 142, 143, 144, 145, 146, 147, 148, 149, 150, 151, 152, 153, 154, 155, 156, 157, 158, 159, 160, 161, 162, 163, 164, 165, 166, 167, 168, 169, 170, 171, 172, 173, 174, 175, 176, 177, 178, 179, 180, 181, 182, 183, 184, 185, 186, 187, 188, 189, 190, 191, 192, 193, 194, 195, 196, 197, 198, 199, 200, 201, 202, 203, 204, 205, 206, 207, 208, 209, 210, 211, 212, 213, 214, 215, 216, 217, 218, 219, 220, 221, 222, 223, 224, 225, 226, 227, 228, 229, 230, 231, 232, 233, 234, 235, 236, 237, 238, 239, 240, 241, 242, 243, 244, 245, 246, 247, 248, 249, 250, 251, 252, 253, 254, 255, 256, 257, 258, 259, 260, 261, 262, 263, 264, 265, 266, 267, 268, 269, 270, 271, 272, 273, 274, 275, 276, 277, 278, 279, 280, 281, 282, 283, 284, 285, 286, 287, 288, 289],
      "AcquisitionTime": ["103616.592500", "103618.592500", "103620.592500", "103622.592500", "103624.592500", "103626.592500", "103628.592500", "103630.592500", "103632.592500", "103634.592500", "103636.592500", "103638.592500", "103640.592500", "103642.592500", "103644.592500", "103646.592500", "103648.592500", "103650.592500", "103652.592500", "103654.592500", "103656.592500", "103658.592500", "103700.592500", "103702.592500", "103704.592500", "103706.592500", "103708.592500", "103710.592500", "103712.592500", "103714.592500", "103716.592500", "103718.592500", "103720.592500", "103722.592500", "103724.592500", "103726.592500", "103728.592500", "103730.592500", "103732.592500", "103734.592500", "103736.592500", "103738.592500", "103740.592500", "103742.592500", "103744.592500", "103746.592500", "103748.592500", "103750.592500", "103752.592500", "103754.592500", "103756.592500", "103758.592500", "103800.592500", "103802.592500", "103804.592500", "103806.592500", "103808.592500", "103810.592500", "103812.592500", "103814.592500", "103816.592500", "103818.592500", "103820.592500", "103822.592500", "103824.592500", "103826.592500", "103828.592500", "103830.592500", "103832.592500", "103834.592500", "103836.592500", "103838.592500", "103840.592500", "103842.592500", "103844.592500", "103846.592500", "103848.592500", "103850.592500", "103852.592500", "103854.592500", "103856.592500", "103858.592500", "103900.592500", "103902.592500", "103904.592500", "103906.592500", "103908.592500", "103910.592500", "103912.592500", "103914.592500", "103916.592500", "103918.592500", "103920.592500", "103922.592500", "103924.592500", "103926.592500", "103928.592500", "103930.592500", "103932.592500", "103934.592500", "103936.592500", "103938.592500", "103940.592500", "103942.592500", "103944.592500", "103946.592500", "103948.592500", "103950.592500", "103952.592500", "103954.592500", "103956.592500", "103958.592500", "104000.592500", "104002.592500", "104004.592500", "104006.592500", "104008.592500", "104010.592500", "104012.592500", "104014.592500", "104016.592500", "104018.592500", "104020.592500", "104022.592500", "104024.592500", "104026.592500", "104028.592500", "104030.592500", "104032.592500", "104034.592500", "104036.592500", "104038.592500", "104040.592500", "104042.592500", "104044.592500", "104046.592500", "104048.592500", "104050.592500", "104052.592500", "104054.592500", "104056.592500", "104058.592500", "104100.592500", "104102.592500", "104104.592500", "104106.592500", "104108.592500", "104110.592500", "104112.592500", "104114.592500", "104116.592500", "104118.592500", "104120.592500", "104122.592500", "104124.592500", "104126.592500", "104128.592500", "104130.592500", "104132.592500", "104134.592500", "104136.592500", "104138.592500", "104140.592500", "104142.592500", "104144.592500", "104146.592500", "104148.592500", "104150.592500", "104152.592500", "104154.592500", "104156.592500", "104158.592500", "104200.592500", "104202.592500", "104204.592500", "104206.592500", "104208.592500", "104210.592500", "104212.592500", "104214.592500", "104216.592500", "104218.592500", "104220.592500", "104222.592500", "104224.592500", "104226.592500", "104228.592500", "104230.592500", "104232.592500", "104234.592500", "104236.592500", "104238.592500", "104240.592500", "104242.592500", "104244.592500", "104246.592500", "104248.592500", "104250.592500", "104252.592500", "104254.592500", "104256.592500", "104258.592500", "104300.592500", "104302.592500", "104304.592500", "104306.592500", "104308.592500", "104310.592500", "104312.592500", "104314.592500", "104316.592500", "104318.592500", "104320.592500", "104322.592500", "104324.592500", "104326.592500", "104328.592500", "104330.592500", "104332.592500", "104334.592500", "104336.592500", "104338.592500", "104340.592500", "104342.592500", "104344.595000", "104346.595000", "104348.595000", "104350.595000", "104352.595000", "104354.595000", "104356.595000", "104358.595000", "104400.595000", "104402.595000", "104404.595000", "104406.595000", "104408.595000", "104410.595000", "104412.595000", "104414.595000", "104416.595000", "104418.595000", "104420.595000", "104422.595000", "104424.595000", "104426.595000", "104428.595000", "104430.595000", "104432.595000", "104434.595000", "104436.595000", "104438.595000", "104440.595000", "104442.595000", "104444.595000", "104446.595000", "104448.595000", "104450.595000", "104452.595000", "104454.595000", "104456.595000", "104458.595000", "104500.595000", "104502.595000", "104504.595000", "104506.595000", "104508.595000", "104510.595000", "104512.595000", "104514.595000", "104516.595000", "104518.595000", "104520.595000", "104522.595000", "104524.595000", "104526.595000", "104528.595000", "104530.595000", "104532.595000", "104534.595000", "104536.595000", "104538.595000", "104540.595000", "104542.595000", "104544.595000", "104546.595000", "104548.595000", "104550.595000", "104552.595000"],
      "ContentTime": ["103628.554000", "103629.547000", "103629.551000", "103630.548000", "103630.552000", "103631.547000", "103631.551000", "103633.549000", "103635.548000", "103637.547000", "103639.549000", "103641.548000", "103643.548000", "103645.548000", "103647.547000", "103649.548000", "103651.549000", "103653.548000", "103655.549000", "103657.548000", "103659.548000", "103701.548000", "103703.547000", "103705.548000", "103707.549000", "103709.549000", "103711.549000", "103713.549000", "103715.546000", "103717.546000", "103719.547000", "103721.548000", "103723.548000", "103725.557000", "103727.548000", "103729.549000", "103731.549000", "103733.548000", "103735.548000", "103737.548000", "103739.548000", "103741.548000", "103743.548000", "103745.549000", "103747.549000", "103749.548000", "103751.548000", "103753.548000", "103755.548000", "103757.548000", "103759.549000", "103801.550000", "103803.549000", "103805.549000", "103807.547000", "103809.548000", "103811.548000", "103813.548000", "103815.548000", "103817.548000", "103819.550000", "103821.549000", "103823.550000", "103825.548000", "103827.549000", "103829.548000", "103831.546000", "103833.548000", "103835.549000", "103837.549000", "103839.549000", "103841.549000", "103843.548000", "103845.548000", "103847.548000", "103849.548000", "103851.548000", "103853.549000", "103855.549000", "103857.549000", "103859.548000", "103901.549000", "103903.549000", "103905.548000", "103907.548000", "103909.549000", "103911.548000", "103913.549000", "103915.549000", "103917.548000", "103919.548000", "103921.548000", "103923.548000", "103925.547000", "103927.548000", "103929.549000", "103931.549000", "103933.549000", "103935.548000", "103937.548000", "103939.549000", "103941.548000", "103943.548000", "103945.549000", "103947.549000", "103949.549000", "103951.549000", "103953.548000", "103955.548000", "103957.548000", "103959.548000", "104001.547000", "104003.549000", "104005.549000", "104007.549000", "104009.548000", "104011.549000", "104013.548000", "104015.548000", "104017.548000", "104019.549000", "104021.548000", "104023.550000", "104025.549000", "104027.548000", "104029.548000", "104031.548000", "104033.548000", "104035.549000", "104037.549000", "104039.549000", "104041.549000", "104043.549000", "104045.548000", "104047.548000", "104049.548000", "104051.548000", "104053.547000", "104055.549000", "104057.549000", "104059.549000", "104101.549000", "104103.548000", "104105.548000", "104107.547000", "104109.548000", "104111.547000", "104113.549000", "104115.549000", "104117.550000", "104119.548000", "104121.547000", "104123.548000", "104125.548000", "104127.549000", "104129.549000", "104131.549000", "104133.549000", "104135.549000", "104137.548000", "104139.548000", "104141.548000", "104143.548000", "104145.548000", "104147.549000", "104149.549000", "104151.550000", "104153.549000", "104155.547000", "104157.548000", "104159.548000", "104201.548000", "104203.548000", "104205.549000", "104207.549000", "104209.549000", "104211.550000", "104213.548000", "104215.548000", "104217.548000", "104219.548000", "104221.547000", "104223.550000", "104225.549000", "104227.549000", "104229.548000", "104231.548000", "104233.548000", "104235.548000", "104237.548000", "104239.549000", "104241.549000", "104243.549000", "104245.549000", "104247.548000", "104249.548000", "104251.549000", "104253.548000", "104255.548000", "104257.549000", "104259.549000", "104301.549000", "104303.549000", "104305.548000", "104307.548000", "104309.548000", "104311.548000", "104313.548000", "104315.549000", "104317.560000", "104319.549000", "104321.550000", "104323.548000", "104325.548000", "104327.548000", "104329.548000", "104331.549000", "104333.549000", "104335.548000", "104337.548000", "104339.548000", "104341.548000", "104343.548000", "104345.548000", "104347.548000", "104349.549000", "104351.550000", "104353.549000", "104355.549000", "104357.548000", "104359.548000", "104401.548000", "104403.548000", "104405.548000", "104407.549000", "104409.549000", "104411.549000", "104413.549000", "104415.548000", "104417.548000", "104419.548000", "104421.548000", "104423.548000", "104425.549000", "104427.549000", "104429.549000", "104431.548000", "104433.548000", "104435.548000", "104437.547000", "104439.548000", "104441.549000", "104443.549000", "104445.549000", "104447.549000", "104449.548000", "104451.548000", "104453.549000", "104455.549000", "104457.548000", "104459.549000", "104501.549000", "104503.550000", "104505.549000", "104507.549000", "104509.548000", "104511.548000", "104513.548000", "104515.548000", "104517.547000", "104519.549000", "104521.549000", "104523.550000", "104525.548000", "104527.549000", "104529.546000", "104531.548000", "104533.548000", "104535.549000", "104537.549000", "104539.549000", "104541.548000", "104543.548000", "104545.548000", "104547.548000", "104549.548000", "104551.549000", "104553.549000", "104555.464000"],
      "InstanceCreationTime": ["103628.554000", "103629.547000", "103629.551000", "103630.548000", "103630.552000", "103631.547000", "103631.551000", "103633.549000", "103635.548000", "103637.547000", "103639.549000", "103641.548000", "103643.548000", "103645.548000", "103647.547000", "103649.548000", "103651.549000", "103653.548000", "103655.549000", "103657.548000", "103659.548000", "103701.548000", "103703.547000", "103705.548000", "103707.549000", "103709.549000", "103711.549000", "103713.549000", "103715.546000", "103717.546000", "103719.547000", "103721.548000", "103723.548000", "103725.557000", "103727.548000", "103729.549000", "103731.549000", "103733.548000", "103735.548000", "103737.548000", "103739.548000", "103741.548000", "103743.548000", "103745.549000", "103747.549000", "103749.548000", "103751.548000", "103753.548000", "103755.548000", "103757.548000", "103759.549000", "103801.550000", "103803.549000", "103805.549000", "103807.547000", "103809.548000", "103811.548000", "103813.548000", "103815.548000", "103817.548000", "103819.550000", "103821.549000", "103823.550000", "103825.548000", "103827.549000", "103829.548000", "103831.546000", "103833.548000", "103835.549000", "103837.549000", "103839.549000", "103841.549000", "103843.548000", "103845.548000", "103847.548000", "103849.548000", "103851.548000", "103853.549000", "103855.549000", "103857.549000", "103859.548000", "103901.549000", "103903.549000", "103905.548000", "103907.548000", "103909.549000", "103911.548000", "103913.549000", "103915.549000", "103917.548000", "103919.548000", "103921.548000", "103923.548000", "103925.547000", "103927.548000", "103929.549000", "103931.549000", "103933.549000", "103935.548000", "103937.548000", "103939.549000", "103941.548000", "103943.548000", "103945.549000", "103947.549000", "103949.549000", "103951.549000", "103953.548000", "103955.548000", "103957.548000", "103959.548000", "104001.547000", "104003.549000", "104005.549000", "104007.549000", "104009.548000", "104011.549000", "104013.548000", "104015.548000", "104017.548000", "104019.549000", "104021.548000", "104023.550000", "104025.549000", "104027.548000", "104029.548000", "104031.548000", "104033.548000", "104035.549000", "104037.549000", "104039.549000", "104041.549000", "104043.549000", "104045.548000", "104047.548000", "104049.548000", "104051.548000", "104053.547000", "104055.549000", "104057.549000", "104059.549000", "104101.549000", "104103.548000", "104105.548000", "104107.547000", "104109.548000", "104111.547000", "104113.549000", "104115.549000", "104117.550000", "104119.548000", "104121.547000", "104123.548000", "104125.548000", "104127.549000", "104129.549000", "104131.549000", "104133.549000", "104135.549000", "104137.548000", "104139.548000", "104141.548000", "104143.548000", "104145.548000", "104147.549000", "104149.549000", "104151.550000", "104153.549000", "104155.547000", "104157.548000", "104159.548000", "104201.548000", "104203.548000", "104205.549000", "104207.549000", "104209.549000", "104211.550000", "104213.548000", "104215.548000", "104217.548000", "104219.548000", "104221.547000", "104223.550000", "104225.549000", "104227.549000", "104229.548000", "104231.548000", "104233.548000", "104235.548000", "104237.548000", "104239.549000", "104241.549000", "104243.549000", "104245.549000", "104247.548000", "104249.548000", "104251.549000", "104253.548000", "104255.548000", "104257.549000", "104259.549000", "104301.549000", "104303.549000", "104305.548000", "104307.548000", "104309.548000", "104311.548000", "104313.548000", "104315.549000", "104317.560000", "104319.549000", "104321.550000", "104323.548000", "104325.548000", "104327.548000", "104329.548000", "104331.549000", "104333.549000", "104335.548000", "104337.548000", "104339.548000", "104341.548000", "104343.548000", "104345.548000", "104347.548000", "104349.549000", "104351.550000", "104353.549000", "104355.549000", "104357.548000", "104359.548000", "104401.548000", "104403.548000", "104405.548000", "104407.549000", "104409.549000", "104411.549000", "104413.549000", "104415.548000", "104417.548000", "104419.548000", "104421.548000", "104423.548000", "104425.549000", "104427.549000", "104429.549000", "104431.548000", "104433.548000", "104435.548000", "104437.547000", "104439.548000", "104441.549000", "104443.549000", "104445.549000", "104447.549000", "104449.548000", "104451.548000", "104453.549000", "104455.549000", "104457.548000", "104459.549000", "104501.549000", "104503.550000", "104505.549000", "104507.549000", "104509.548000", "104511.548000", "104513.548000", "104515.548000", "104517.547000", "104519.549000", "104521.549000", "104523.550000", "104525.548000", "104527.549000", "104529.546000", "104531.548000", "104533.548000", "104535.549000", "104537.549000", "104539.549000", "104541.548000", "104543.548000", "104545.548000", "104547.548000", "104549.548000", "104551.549000", "104553.549000", "104555.464000"],
      "InstanceNumber": [1, 2, 3, 4, 5, 6, 7, 8, 9, 10, 11, 12, 13, 14, 15, 16, 17, 18, 19, 20, 21, 22, 23, 24, 25, 26, 27, 28, 29, 30, 31, 32, 33, 34, 35, 36, 37, 38, 39, 40, 41, 42, 43, 44, 45, 46, 47, 48, 49, 50, 51, 52, 53, 54, 55, 56, 57, 58, 59, 60, 61, 62, 63, 64, 65, 66, 67, 68, 69, 70, 71, 72, 73, 74, 75, 76, 77, 78, 79, 80, 81, 82, 83, 84, 85, 86, 87, 88, 89, 90, 91, 92, 93, 94, 95, 96, 97, 98, 99, 100, 101, 102, 103, 104, 105, 106, 107, 108, 109, 110, 111, 112, 113, 114, 115, 116, 117, 118, 119, 120, 121, 122, 123, 124, 125, 126, 127, 128, 129, 130, 131, 132, 133, 134, 135, 136, 137, 138, 139, 140, 141, 142, 143, 144, 145, 146, 147, 148, 149, 150, 151, 152, 153, 154, 155, 156, 157, 158, 159, 160, 161, 162, 163, 164, 165, 166, 167, 168, 169, 170, 171, 172, 173, 174, 175, 176, 177, 178, 179, 180, 181, 182, 183, 184, 185, 186, 187, 188, 189, 190, 191, 192, 193, 194, 195, 196, 197, 198, 199, 200, 201, 202, 203, 204, 205, 206, 207, 208, 209, 210, 211, 212, 213, 214, 215, 216, 217, 218, 219, 220, 221, 222, 223, 224, 225, 226, 227, 228, 229, 230, 231, 232, 233, 234, 235, 236, 237, 238, 239, 240, 241, 242, 243, 244, 245, 246, 247, 248, 249, 250, 251, 252, 253, 254, 255, 256, 257, 258, 259, 260, 261, 262, 263, 264, 265, 266, 267, 268, 269, 270, 271, 272, 273, 274, 275, 276, 277, 278, 279, 280, 281, 282, 283, 284, 285, 286, 287, 288, 289],
      "WindowCenter": [18347.0, 18332.0, 18314.0, 18336.0, 18313.0, 18334.0, 18311.0, 18317.0, 18294.0, 18303.0, 18310.0, 18301.0, 18325.0, 18315.0, 18321.0, 18316.0, 18294.0, 18283.0, 18278.0, 18298.0, 18309.0, 18338.0, 18305.0, 18304.0, 18294.0, 18293.0, 18300.0, 18318.0, 18298.0, 18287.0, 18318.0, 18303.0, 18299.0, 18304.0, 18295.0, 18295.0, 18319.0, 18298.0, 18305.0, 18327.0, 18314.0, 18304.0, 18294.0, 18277.0, 18298.0, 18309.0, 18331.0, 18325.0, 18320.0, 18308.0, 18310.0, 18313.0, 18316.0, 18321.0, 18298.0, 18282.0, 18289.0, 18325.0, 18314.0, 18301.0, 18296.0, 18296.0, 18321.0, 18325.0, 18311.0, 18301.0, 18300.0, 18302.0, 18303.0, 18328.0, 18339.0, 18342.0, 18310.0, 18285.0, 18307.0, 18325.0, 18321.0, 18314.0, 18302.0, 18304.0, 18315.0, 18325.0, 18332.0, 18311.0, 18312.0, 18289.0, 18318.0, 18327.0, 18329.0, 18292.0, 18316.0, 18298.0, 18314.0, 18307.0, 18311.0, 18332.0, 18314.0, 18294.0, 18282.0, 18314.0, 18318.0, 18335.0, 18320.0, 18299.0, 18288.0, 18310.0, 18296.0, 18322.0, 18306.0, 18314.0, 18322.0, 18311.0, 18324.0, 18325.0, 18322.0, 18320.0, 18318.0, 18302.0, 18311.0, 18312.0, 18311.0, 18281.0, 18312.0, 18312.0, 18317.0, 18341.0, 18342.0, 18329.0, 18305.0, 18320.0, 18309.0, 18305.0, 18314.0, 18323.0, 18318.0, 18331.0, 18329.0, 18315.0, 18312.0, 18306.0, 18325.0, 18330.0, 18318.0, 18331.0, 18313.0, 18293.0, 18297.0, 18333.0, 18334.0, 18320.0, 18310.0, 18298.0, 18307.0, 18307.0, 18301.0, 18300.0, 18329.0, 18337.0, 18322.0, 18312.0, 18307.0, 18316.0, 18317.0, 18320.0, 18323.0, 18324.0, 18318.0, 18332.0, 18332.0, 18333.0, 18309.0, 18317.0, 18329.0, 18358.0, 18325.0, 18316.0, 18331.0, 18324.0, 18298.0, 18311.0, 18311.0, 18306.0, 18307.0, 18320.0, 18327.0, 18313.0, 18316.0, 18313.0, 18323.0, 18339.0, 18335.0, 18326.0, 18336.0, 18332.0, 18306.0, 18336.0, 18343.0, 18365.0, 18361.0, 18326.0, 18312.0, 18309.0, 18294.0, 18310.0, 18333.0, 18333.0, 18329.0, 18333.0, 18331.0, 18354.0, 18344.0, 18331.0, 18337.0, 18368.0, 18368.0, 18345.0, 18331.0, 18313.0, 18304.0, 18317.0, 18334.0, 18362.0, 18366.0, 18320.0, 18350.0, 18339.0, 18316.0, 18310.0, 18322.0, 18342.0, 18367.0, 18366.0, 18381.0, 18354.0, 18346.0, 18337.0, 18343.0, 18339.0, 18347.0, 18381.0, 18350.0, 18332.0, 18322.0, 18336.0, 18340.0, 18352.0, 18353.0, 18343.0, 18332.0, 18325.0, 18351.0, 18354.0, 18371.0, 18327.0, 18348.0, 18340.0, 18340.0, 18344.0, 18332.0, 18325.0, 18334.0, 18368.0, 18339.0, 18361.0, 18376.0, 18359.0, 18362.0, 18352.0, 18343.0, 18329.0, 18329.0, 18330.0, 18366.0, 18387.0, 18415.0, 18385.0, 18328.0, 18324.0, 18317.0, 18292.0, 18323.0, 18318.0, 18340.0, 18327.0, 18324.0, 18352.0, 18351.0, 18337.0, 18337.0],
      "WindowWidth": [50698.0, 50498.0, 50450.0, 50474.0, 50509.0, 50498.0, 50486.0, 50406.0, 50393.0, 50422.0, 50389.0, 50410.0, 50506.0, 50538.0, 50503.0, 50440.0, 50392.0, 50387.0, 50432.0, 50432.0, 50449.0, 50442.0, 50435.0, 50399.0, 50441.0, 50478.0, 50517.0, 50477.0, 50431.0, 50438.0, 50394.0, 50351.0, 50372.0, 50363.0, 50394.0, 50443.0, 50455.0, 50433.0, 50496.0, 50543.0, 50512.0, 50434.0, 50393.0, 50410.0, 50445.0, 50486.0, 50522.0, 50518.0, 50479.0, 50461.0, 50474.0, 50536.0, 50525.0, 50480.0, 50430.0, 50398.0, 50415.0, 50435.0, 50478.0, 50495.0, 50491.0, 50491.0, 50539.0, 50483.0, 50438.0, 50434.0, 50470.0, 50471.0, 50509.0, 50557.0, 50550.0, 50478.0, 50438.0, 50413.0, 50415.0, 50495.0, 50552.0, 50500.0, 50434.0, 50363.0, 50394.0, 50446.0, 50413.0, 50402.0, 50367.0, 50355.0, 50360.0, 50413.0, 50424.0, 50440.0, 50430.0, 50421.0, 50417.0, 50439.0, 50548.0, 50534.0, 50463.0, 50369.0, 50340.0, 50407.0, 50504.0, 50476.0, 50408.0, 50385.0, 50365.0, 50342.0, 50395.0, 50445.0, 50498.0, 50525.0, 50495.0, 50465.0, 50484.0, 50545.0, 50555.0, 50469.0, 50406.0, 50423.0, 50476.0, 50489.0, 50476.0, 50459.0, 50477.0, 50500.0, 50491.0, 50539.0, 50576.0, 50508.0, 50449.0, 50422.0, 50417.0, 50450.0, 50503.0, 50495.0, 50505.0, 50524.0, 50475.0, 50431.0, 50406.0, 50426.0, 50473.0, 50524.0, 50516.0, 50463.0, 50431.0, 50421.0, 50459.0, 50489.0, 50466.0, 50469.0, 50489.0, 50494.0, 50463.0, 50450.0, 50459.0, 50495.0, 50486.0, 50455.0, 50435.0, 50442.0, 50438.0, 50419.0, 50444.0, 50482.0, 50484.0, 50484.0, 50470.0, 50513.0, 50501.0, 50453.0, 50429.0, 50445.0, 50548.0, 50562.0, 50508.0, 50467.0, 50451.0, 50448.0, 50421.0, 50406.0, 50452.0, 50475.0, 50464.0, 50446.0, 50474.0, 50491.0, 50481.0, 50466.0, 50460.0, 50469.0, 50514.0, 50570.0, 50550.0, 50476.0, 50452.0, 50493.0, 50604.0, 50687.0, 50624.0, 50496.0, 50406.0, 50379.0, 50409.0, 50466.0, 50503.0, 50503.0, 50513.0, 50539.0, 50513.0, 50477.0, 50460.0, 50465.0, 50504.0, 50568.0, 50544.0, 50495.0, 50451.0, 50419.0, 50415.0, 50458.0, 50539.0, 50542.0, 50508.0, 50530.0, 50499.0, 50421.0, 50361.0, 50395.0, 50461.0, 50544.0, 50604.0, 50615.0, 50562.0, 50524.0, 50472.0, 50431.0, 50449.0, 50554.0, 50690.0, 50695.0, 50619.0, 50537.0, 50484.0, 50456.0, 50448.0, 50501.0, 50538.0, 50496.0, 50443.0, 50453.0, 50526.0, 50564.0, 50537.0, 50513.0, 50524.0, 50532.0, 50519.0, 50509.0, 50491.0, 50463.0, 50492.0, 50523.0, 50545.0, 50593.0, 50613.0, 50555.0, 50496.0, 50466.0, 50474.0, 50501.0, 50502.0, 50560.0, 50642.0, 50761.0, 50763.0, 50648.0, 50510.0, 50401.0, 50349.0, 50384.0, 50401.0, 50436.0, 50459.0, 50416.0, 50498.0, 50539.0, 50549.0, 50518.0, 50421.0]
    },
    "slices": {}
  }
}