{
  "AcquisitionMatrixPE": 116,
  "AcquisitionNumber": 1,
  "AcquisitionTime": "11:16:33.645000",
  "BandwidthPerPixelPhaseEncode": 18.539,
  "BaseResolution": 116,
  "BodyPartExamined": "HEAD",
  "ConsistencyInfo": "N4_VD13D_LATEST_20130810",
  "ConversionSoftware": "dcm2niix",
  "ConversionSoftwareVersion": "v1.0.20190410  (JP2:OpenJPEG) (JP-LS:CharLS) GCC5.5.0",
  "DerivedVendorReportedEchoSpacing": 0.000930006,
  "DeviceSerialNumber": "66014",
  "DwellTime": 3e-06,
  "EchoTime": 0.03,
  "EchoTrainLength": 50,
  "EffectiveEchoSpacing": 0.000465003,
  "FlipAngle": 81,
  "ImageComments": "Unaliased_MB3_PE4",
  "ImageOrientationPatientDICOM": [0.999914, -0.00979674, -0.00876986, 0.0087261, 0.993356, -0.114747],
  "ImageType": [
    "ORIGINAL",
    "PRIMARY",
    "M",
    "MB",
    "ND",
    "MOSAIC"
],
  "ImagingFrequency": 123.261,
  "InPlanePhaseEncodingDirectionDICOM": "COL",
  "InstitutionAddress": "Yiheyuan_Road_5_Beijing_Haidian_CN_100871",
  "InstitutionName": "Peking_University",
  "InstitutionalDepartmentName": "Department",
  "MRAcquisitionType": "2D",
  "MagneticFieldStrength": 3,
  "Manufacturer": "Siemens",
  "ManufacturersModelName": "Prisma",
  "Modality": "MR",
  "MultibandAccelerationFactor": 3,
  "ParallelReductionFactorInPlane": 2,
  "PartialFourier": 0.875,
  "PatientPosition": "HFS",
  "PercentPhaseFOV": 100,
  "PhaseEncodingDirection": "j-",
  "PhaseEncodingSteps": 101,
  "PhaseResolution": 1,
  "PixelBandwidth": 1435,
  "ProcedureStepDescription": "Research_Projects_64CH",
  "ProtocolName": "mbep2d_bold_MB3_learn4",
  "PulseSequenceDetails": "%CustomerSeq%_cmrr_mbep2d_bold",
  "ReceiveCoilActiveElements": "HC1-6",
  "ReceiveCoilName": "HeadNeck_64",
  "ReconMatrixPE": 116,
  "RefLinesPE": 44,
  "RepetitionTime": 2,
  "SAR": 0.0644806,
  "ScanOptions": "PFP_FS",
  "ScanningSequence": "EP",
  "SequenceName": "epfid2d1_116",
  "SequenceVariant": "SK_SS",
  "SeriesDescription": "mbep2d_bold_MB3_learn4",
  "SeriesNumber": 9,
  "ShimSetting": [-3462, -2089, -1976, 370, -47, -186, -71, 20],
  "SliceThickness": 1.9,
  "SliceTiming": [0, 0.9075, 1.815, 0.7425, 1.65, 0.5775, 1.485, 0.4125, 1.32, 0.2475, 1.155, 0.0825, 0.99, 1.8975, 0.825, 1.7325, 0.66, 1.5675, 0.495, 1.4025, 0.33, 1.2375, 0.165, 1.0725, 0, 0.9075, 1.815, 0.7425, 1.65, 0.5775, 1.485, 0.4125, 1.32, 0.2475, 1.155, 0.0825, 0.99, 1.8975, 0.825, 1.7325, 0.66, 1.5675, 0.495, 1.4025, 0.33, 1.2375, 0.165, 1.0725, 0, 0.9075, 1.815, 0.7425, 1.65, 0.5775, 1.485, 0.4125, 1.32, 0.2475, 1.155, 0.0825, 0.99, 1.8975, 0.825, 1.7325, 0.66, 1.5675, 0.495, 1.4025, 0.33, 1.2375, 0.165, 1.0725],
  "SoftwareVersions": "syngo_MR_D13D",
  "SpacingBetweenSlices": 1.9,
  "StationName": "AWP66014",
  "TaskName": "updating",
  "TotalReadoutTime": 0.0534753,
  "TxRefAmp": 232.974,
  "WipMemBlock": "0f6e23bb-9961-4356-8a3b-eb38e5288b47||Sequence: vd13d/master r/0735857; Nov 19 2014 09:21:40 by eja",
  "dcmmeta_affine": [
    [-1.8963878154754639, 0.016549501568078995, -0.01868790201842785, 109.36605072021484],
    [0.018580026924610138, 1.8839519023895264, -0.21785418689250946, -92.69185638427734],
    [-0.01663248986005783, 0.2176227569580078, 1.8873765468597412, -80.86041259765625],
    [0.0, 0.0, 0.0, 1.0]
],
  "dcmmeta_reorient_transform": [
    [0.0, -1.0, 0.0, 115.0],
    [1.0, 0.0, 0.0, 0.0],
    [0.0, 0.0, 1.0, 0.0],
    [0.0, 0.0, 0.0, 1.0]
],
  "dcmmeta_shape": [116, 116, 72, 218],
  "dcmmeta_slice_dim": 2,
  "dcmmeta_version": 0.6,
  "global": {
    "const": {
      "AcquisitionMatrix": [116, 0, 0, 116],
      "AngioFlag": "N",
      "BitsAllocated": 16,
      "BitsStored": 16,
      "BodyPartExamined": "HEAD",
      "Columns": 1044,
      "EchoNumbers": 1,
      "EchoTime": 30.0,
      "EchoTrainLength": 50,
      "FlipAngle": 81.0,
      "HighBit": 15,
      "ImageOrientationPatient": [0.9999135529818, -0.0097967418551, -0.0087698581705, 0.00872610036933, 0.99335647454964, -0.1147465452319],
      "ImagePositionPatient": [-998.87213825844, -989.49518507029, 52.860638742309],
      "ImageType": [
        "ORIGINAL",
        "PRIMARY",
        "M",
        "MB",
        "ND",
        "MOSAIC"
],
      "ImagedNucleus": "1H",
      "ImagingFrequency": 123.260586,
      "InPlanePhaseEncodingDirection": "COL",
      "LargestImagePixelValue": 65535,
      "MRAcquisitionType": "2D",
      "MagneticFieldStrength": 3.0,
      "Manufacturer": "SIEMENS",
      "ManufacturerModelName": "Prisma",
      "Modality": "MR",
      "NumberOfAverages": 1.0,
      "NumberOfPhaseEncodingSteps": 101,
      "PercentPhaseFieldOfView": 100.0,
      "PercentSampling": 100.0,
      "PerformedProcedureStepStartTime": "103438.621000",
      "PhotometricInterpretation": "MONOCHROME2",
      "PixelBandwidth": 1435.0,
      "PixelRepresentation": 0,
      "PixelSpacing": [1.8965517282486, 1.8965517282486],
      "ProtocolName": "mbep2d_bold_MB3_learn4",
      "RepetitionTime": 2000.0,
      "Rows": 1044,
      "SAR": 0.064480568539,
      "SamplesPerPixel": 1,
      "ScanOptions": [
        "PFP",
        "FS"
],
      "ScanningSequence": "EP",
      "SequenceName": "epfid2d1_116",
      "SequenceVariant": [
        "SK",
        "SS"
],
      "SeriesDescription": "mbep2d_bold_MB3_learn4",
      "SeriesNumber": 9,
      "SeriesTime": "111645.788000",
      "SliceLocation": -70.770822903221,
      "SliceThickness": 1.8999999761581,
      "SmallestImagePixelValue": 0,
      "SoftwareVersions": "syngo MR D13D",
      "SpacingBetweenSlices": 1.9000000276998,
      "SpecificCharacterSet": "ISO_IR 100",
      "StudyID": "1",
      "StudyTime": "103438.527000",
      "TimeOfLastCalibration": ["123723.000000", "123723.000000"],
      "TransmitCoilName": "Body",
      "VariableFlipAngleFlag": "N",
      "WindowCenterWidthExplanation": "Algo1",
      "dBdt": 0.0},
    "slices": {}
  },
  "time": {
    "samples": {
      "AcquisitionNumber": [1, 2, 3, 4, 5, 6, 7, 8, 9, 10, 11, 12, 13, 14, 15, 16, 17, 18, 19, 20, 21, 22, 23, 24, 25, 26, 27, 28, 29, 30, 31, 32, 33, 34, 35, 36, 37, 38, 39, 40, 41, 42, 43, 44, 45, 46, 47, 48, 49, 50, 51, 52, 53, 54, 55, 56, 57, 58, 59, 60, 61, 62, 63, 64, 65, 66, 67, 68, 69, 70, 71, 72, 73, 74, 75, 76, 77, 78, 79, 80, 81, 82, 83, 84, 85, 86, 87, 88, 89, 90, 91, 92, 93, 94, 95, 96, 97, 98, 99, 100, 101, 102, 103, 104, 105, 106, 107, 108, 109, 110, 111, 112, 113, 114, 115, 116, 117, 118, 119, 120, 121, 122, 123, 124, 125, 126, 127, 128, 129, 130, 131, 132, 133, 134, 135, 136, 137, 138, 139, 140, 141, 142, 143, 144, 145, 146, 147, 148, 149, 150, 151, 152, 153, 154, 155, 156, 157, 158, 159, 160, 161, 162, 163, 164, 165, 166, 167, 168, 169, 170, 171, 172, 173, 174, 175, 176, 177, 178, 179, 180, 181, 182, 183, 184, 185, 186, 187, 188, 189, 190, 191, 192, 193, 194, 195, 196, 197, 198, 199, 200, 201, 202, 203, 204, 205, 206, 207, 208, 209, 210, 211, 212, 213, 214, 215, 216, 217, 218],
      "AcquisitionTime": ["111633.645000", "111635.645000", "111637.645000", "111639.645000", "111641.645000", "111643.645000", "111645.645000", "111647.645000", "111649.645000", "111651.645000", "111653.645000", "111655.645000", "111657.645000", "111659.645000", "111701.645000", "111703.645000", "111705.645000", "111707.645000", "111709.645000", "111711.645000", "111713.645000", "111715.645000", "111717.645000", "111719.645000", "111721.645000", "111723.645000", "111725.645000", "111727.645000", "111729.645000", "111731.645000", "111733.645000", "111735.645000", "111737.645000", "111739.645000", "111741.645000", "111743.645000", "111745.645000", "111747.645000", "111749.645000", "111751.645000", "111753.645000", "111755.645000", "111757.645000", "111759.645000", "111801.645000", "111803.645000", "111805.645000", "111807.645000", "111809.645000", "111811.645000", "111813.645000", "111815.645000", "111817.645000", "111819.645000", "111821.645000", "111823.645000", "111825.645000", "111827.645000", "111829.645000", "111831.645000", "111833.645000", "111835.645000", "111837.645000", "111839.645000", "111841.645000", "111843.645000", "111845.645000", "111847.645000", "111849.645000", "111851.645000", "111853.645000", "111855.645000", "111857.645000", "111859.645000", "111901.645000", "111903.645000", "111905.645000", "111907.645000", "111909.645000", "111911.645000", "111913.645000", "111915.645000", "111917.645000", "111919.645000", "111921.645000", "111923.645000", "111925.645000", "111927.645000", "111929.645000", "111931.645000", "111933.645000", "111935.645000", "111937.645000", "111939.645000", "111941.645000", "111943.645000", "111945.645000", "111947.645000", "111949.645000", "111951.645000", "111953.645000", "111955.645000", "111957.645000", "111959.645000", "112001.645000", "112003.645000", "112005.645000", "112007.645000", "112009.645000", "112011.645000", "112013.645000", "112015.645000", "112017.645000", "112019.645000", "112021.645000", "112023.645000", "112025.645000", "112027.645000", "112029.645000", "112031.645000", "112033.645000", "112035.645000", "112037.645000", "112039.645000", "112041.645000", "112043.645000", "112045.645000", "112047.645000", "112049.645000", "112051.645000", "112053.645000", "112055.645000", "112057.645000", "112059.645000", "112101.645000", "112103.645000", "112105.645000", "112107.645000", "112109.645000", "112111.645000", "112113.645000", "112115.645000", "112117.645000", "112119.645000", "112121.645000", "112123.645000", "112125.645000", "112127.645000", "112129.645000", "112131.645000", "112133.645000", "112135.645000", "112137.645000", "112139.645000", "112141.645000", "112143.645000", "112145.645000", "112147.645000", "112149.645000", "112151.645000", "112153.645000", "112155.645000", "112157.645000", "112159.645000", "112201.645000", "112203.645000", "112205.645000", "112207.645000", "112209.645000", "112211.645000", "112213.645000", "112215.645000", "112217.645000", "112219.645000", "112221.645000", "112223.645000", "112225.645000", "112227.645000", "112229.645000", "112231.645000", "112233.645000", "112235.645000", "112237.645000", "112239.645000", "112241.645000", "112243.645000", "112245.647500", "112247.647500", "112249.647500", "112251.647500", "112253.647500", "112255.647500", "112257.647500", "112259.647500", "112301.647500", "112303.647500", "112305.647500", "112307.647500", "112309.647500", "112311.647500", "112313.647500", "112315.647500", "112317.647500", "112319.647500", "112321.647500", "112323.647500", "112325.647500", "112327.647500", "112329.647500", "112331.647500", "112333.647500", "112335.647500", "112337.647500", "112339.647500", "112341.647500", "112343.647500", "112345.647500", "112347.647500"],
      "ContentTime": ["111645.794000", "111647.288000", "111647.293000", "111647.296000", "111649.288000", "111649.300000", "111649.304000", "111651.288000", "111652.788000", "111654.788000", "111656.787000", "111658.787000", "111700.788000", "111702.788000", "111704.789000", "111706.788000", "111708.788000", "111710.789000", "111712.787000", "111714.787000", "111716.787000", "111718.787000", "111720.788000", "111722.788000", "111724.788000", "111726.788000", "111728.788000", "111730.787000", "111732.787000", "111734.787000", "111736.787000", "111738.789000", "111740.788000", "111742.788000", "111744.788000", "111746.788000", "111748.787000", "111750.787000", "111752.787000", "111754.788000", "111756.788000", "111758.788000", "111800.788000", "111802.788000", "111804.788000", "111806.786000", "111808.785000", "111810.787000", "111812.788000", "111814.788000", "111816.788000", "111818.788000", "111820.789000", "111822.787000", "111824.787000", "111826.787000", "111828.787000", "111830.788000", "111832.788000", "111834.787000", "111836.788000", "111838.788000", "111840.788000", "111842.787000", "111844.787000", "111846.787000", "111848.788000", "111850.788000", "111852.788000", "111854.788000", "111856.787000", "111858.787000", "111900.788000", "111902.788000", "111904.788000", "111906.788000", "111908.788000", "111910.788000", "111912.788000", "111914.788000", "111916.787000", "111918.787000", "111920.788000", "111922.788000", "111924.788000", "111926.788000", "111928.786000", "111930.789000", "111932.788000", "111934.787000", "111936.788000", "111938.787000", "111940.788000", "111942.786000", "111944.787000", "111946.786000", "111948.788000", "111950.786000", "111952.787000", "111954.786000", "111956.787000", "111958.789000", "112000.788000", "112002.789000", "112004.789000", "112006.789000", "112008.787000", "112010.788000", "112012.788000", "112014.788000", "112016.788000", "112018.789000", "112020.788000", "112022.788000", "112024.788000", "112026.787000", "112028.787000", "112030.787000", "112032.789000", "112034.788000", "112036.788000", "112038.788000", "112040.788000", "112042.786000", "112044.787000", "112046.788000", "112048.788000", "112050.787000", "112052.788000", "112054.788000", "112056.789000", "112058.788000", "112100.787000", "112102.787000", "112104.787000", "112106.788000", "112108.788000", "112110.788000", "112112.788000", "112114.788000", "112116.789000", "112118.787000", "112120.787000", "112122.787000", "112124.789000", "112126.788000", "112128.788000", "112130.788000", "112132.788000", "112134.788000", "112136.786000", "112138.787000", "112140.787000", "112142.788000", "112144.797000", "112146.788000", "112148.788000", "112150.788000", "112152.787000", "112154.787000", "112156.787000", "112158.787000", "112200.788000", "112202.789000", "112204.789000", "112206.788000", "112208.788000", "112210.787000", "112212.788000", "112214.787000", "112216.787000", "112218.789000", "112220.788000", "112222.788000", "112224.788000", "112226.788000", "112228.788000", "112230.787000", "112232.787000", "112234.788000", "112236.788000", "112238.788000", "112240.787000", "112242.787000", "112244.788000", "112246.787000", "112248.787000", "112250.787000", "112252.788000", "112254.788000", "112256.788000", "112258.789000", "112300.789000", "112302.787000", "112304.787000", "112306.787000", "112308.786000", "112310.787000", "112312.787000", "112314.788000", "112316.788000", "112318.788000", "112320.787000", "112322.788000", "112324.788000", "112326.788000", "112328.788000", "112330.788000", "112332.789000", "112334.788000", "112336.788000", "112338.787000", "112340.787000", "112342.786000", "112344.788000", "112346.788000", "112348.788000", "112350.284000"],
      "InstanceCreationTime": ["111645.794000", "111647.288000", "111647.293000", "111647.296000", "111649.288000", "111649.300000", "111649.304000", "111651.288000", "111652.788000", "111654.788000", "111656.787000", "111658.787000", "111700.788000", "111702.788000", "111704.789000", "111706.788000", "111708.788000", "111710.789000", "111712.787000", "111714.787000", "111716.787000", "111718.787000", "111720.788000", "111722.788000", "111724.788000", "111726.788000", "111728.788000", "111730.787000", "111732.787000", "111734.787000", "111736.787000", "111738.789000", "111740.788000", "111742.788000", "111744.788000", "111746.788000", "111748.787000", "111750.787000", "111752.787000", "111754.788000", "111756.788000", "111758.788000", "111800.788000", "111802.788000", "111804.788000", "111806.786000", "111808.785000", "111810.787000", "111812.788000", "111814.788000", "111816.788000", "111818.788000", "111820.789000", "111822.787000", "111824.787000", "111826.787000", "111828.787000", "111830.788000", "111832.788000", "111834.787000", "111836.788000", "111838.788000", "111840.788000", "111842.787000", "111844.787000", "111846.787000", "111848.788000", "111850.788000", "111852.788000", "111854.788000", "111856.787000", "111858.787000", "111900.788000", "111902.788000", "111904.788000", "111906.788000", "111908.788000", "111910.788000", "111912.788000", "111914.788000", "111916.787000", "111918.787000", "111920.788000", "111922.788000", "111924.788000", "111926.788000", "111928.786000", "111930.789000", "111932.788000", "111934.787000", "111936.788000", "111938.787000", "111940.788000", "111942.786000", "111944.787000", "111946.786000", "111948.788000", "111950.786000", "111952.787000", "111954.786000", "111956.787000", "111958.789000", "112000.788000", "112002.789000", "112004.789000", "112006.789000", "112008.787000", "112010.788000", "112012.788000", "112014.788000", "112016.788000", "112018.789000", "112020.788000", "112022.788000", "112024.788000", "112026.787000", "112028.787000", "112030.787000", "112032.789000", "112034.788000", "112036.788000", "112038.788000", "112040.788000", "112042.786000", "112044.787000", "112046.788000", "112048.788000", "112050.787000", "112052.788000", "112054.788000", "112056.789000", "112058.788000", "112100.787000", "112102.787000", "112104.787000", "112106.788000", "112108.788000", "112110.788000", "112112.788000", "112114.788000", "112116.789000", "112118.787000", "112120.787000", "112122.787000", "112124.789000", "112126.788000", "112128.788000", "112130.788000", "112132.788000", "112134.788000", "112136.786000", "112138.787000", "112140.787000", "112142.788000", "112144.797000", "112146.788000", "112148.788000", "112150.788000", "112152.787000", "112154.787000", "112156.787000", "112158.787000", "112200.788000", "112202.789000", "112204.789000", "112206.788000", "112208.788000", "112210.787000", "112212.788000", "112214.787000", "112216.787000", "112218.789000", "112220.788000", "112222.788000", "112224.788000", "112226.788000", "112228.788000", "112230.787000", "112232.787000", "112234.788000", "112236.788000", "112238.788000", "112240.787000", "112242.787000", "112244.788000", "112246.787000", "112248.787000", "112250.787000", "112252.788000", "112254.788000", "112256.788000", "112258.789000", "112300.789000", "112302.787000", "112304.787000", "112306.787000", "112308.786000", "112310.787000", "112312.787000", "112314.788000", "112316.788000", "112318.788000", "112320.787000", "112322.788000", "112324.788000", "112326.788000", "112328.788000", "112330.788000", "112332.789000", "112334.788000", "112336.788000", "112338.787000", "112340.787000", "112342.786000", "112344.788000", "112346.788000", "112348.788000", "112350.284000"],
      "InstanceNumber": [1, 2, 3, 4, 5, 6, 7, 8, 9, 10, 11, 12, 13, 14, 15, 16, 17, 18, 19, 20, 21, 22, 23, 24, 25, 26, 27, 28, 29, 30, 31, 32, 33, 34, 35, 36, 37, 38, 39, 40, 41, 42, 43, 44, 45, 46, 47, 48, 49, 50, 51, 52, 53, 54, 55, 56, 57, 58, 59, 60, 61, 62, 63, 64, 65, 66, 67, 68, 69, 70, 71, 72, 73, 74, 75, 76, 77, 78, 79, 80, 81, 82, 83, 84, 85, 86, 87, 88, 89, 90, 91, 92, 93, 94, 95, 96, 97, 98, 99, 100, 101, 102, 103, 104, 105, 106, 107, 108, 109, 110, 111, 112, 113, 114, 115, 116, 117, 118, 119, 120, 121, 122, 123, 124, 125, 126, 127, 128, 129, 130, 131, 132, 133, 134, 135, 136, 137, 138, 139, 140, 141, 142, 143, 144, 145, 146, 147, 148, 149, 150, 151, 152, 153, 154, 155, 156, 157, 158, 159, 160, 161, 162, 163, 164, 165, 166, 167, 168, 169, 170, 171, 172, 173, 174, 175, 176, 177, 178, 179, 180, 181, 182, 183, 184, 185, 186, 187, 188, 189, 190, 191, 192, 193, 194, 195, 196, 197, 198, 199, 200, 201, 202, 203, 204, 205, 206, 207, 208, 209, 210, 211, 212, 213, 214, 215, 216, 217, 218],
      "WindowCenter": [18268.0, 18249.0, 18261.0, 18239.0, 18236.0, 18231.0, 18222.0, 18214.0, 18216.0, 18198.0, 18217.0, 18216.0, 18235.0, 18240.0, 18242.0, 18250.0, 18236.0, 18212.0, 18203.0, 18194.0, 18206.0, 18210.0, 18216.0, 18205.0, 18231.0, 18208.0, 18212.0, 18217.0, 18226.0, 18196.0, 18225.0, 18201.0, 18218.0, 18206.0, 18210.0, 18196.0, 18208.0, 18220.0, 18211.0, 18215.0, 18195.0, 18223.0, 18194.0, 18228.0, 18235.0, 18234.0, 18239.0, 18202.0, 18195.0, 18205.0, 18202.0, 18211.0, 18216.0, 18245.0, 18255.0, 18222.0, 18194.0, 18180.0, 18170.0, 18177.0, 18187.0, 18195.0, 18207.0, 18191.0, 18193.0, 18240.0, 18240.0, 18221.0, 18213.0, 18196.0, 18175.0, 18193.0, 18188.0, 18191.0, 18196.0, 18209.0, 18205.0, 18209.0, 18227.0, 18183.0, 18184.0, 18190.0, 18214.0, 18199.0, 18190.0, 18211.0, 18244.0, 18254.0, 18240.0, 18216.0, 18218.0, 18227.0, 18225.0, 18220.0, 18229.0, 18226.0, 18255.0, 18260.0, 18233.0, 18230.0, 18216.0, 18211.0, 18234.0, 18233.0, 18221.0, 18226.0, 18194.0, 18218.0, 18227.0, 18233.0, 18225.0, 18225.0, 18247.0, 18243.0, 18232.0, 18230.0, 18216.0, 18252.0, 18241.0, 18252.0, 18222.0, 18247.0, 18252.0, 18236.0, 18245.0, 18239.0, 18249.0, 18252.0, 18253.0, 18262.0, 18258.0, 18279.0, 18237.0, 18237.0, 18247.0, 18250.0, 18231.0, 18261.0, 18240.0, 18233.0, 18241.0, 18249.0, 18266.0, 18239.0, 18245.0, 18235.0, 18250.0, 18255.0, 18221.0, 18226.0, 18214.0, 18252.0, 18278.0, 18287.0, 18265.0, 18267.0, 18263.0, 18253.0, 18251.0, 18228.0, 18214.0, 18188.0, 18224.0, 18237.0, 18223.0, 18252.0, 18248.0, 18259.0, 18238.0, 18233.0, 18215.0, 18226.0, 18220.0, 18240.0, 18244.0, 18250.0, 18231.0, 18225.0, 18201.0, 18219.0, 18244.0, 18251.0, 18236.0, 18247.0, 18250.0, 18234.0, 18211.0, 18202.0, 18231.0, 18236.0, 18264.0, 18270.0, 18245.0, 18228.0, 18227.0, 18216.0, 18228.0, 18241.0, 18261.0, 18257.0, 18235.0, 18238.0, 18248.0, 18270.0, 18266.0, 18275.0, 18259.0, 18232.0, 18247.0, 18232.0, 18222.0, 18243.0, 18258.0, 18249.0, 18255.0, 18249.0, 18262.0, 18261.0],
      "WindowWidth": [50521.0, 50423.0, 50415.0, 50439.0, 50376.0, 50313.0, 50251.0, 50186.0, 50103.0, 50164.0, 50211.0, 50259.0, 50233.0, 50212.0, 50179.0, 50218.0, 50186.0, 50173.0, 50133.0, 50116.0, 50146.0, 50124.0, 50128.0, 50183.0, 50245.0, 50232.0, 50221.0, 50223.0, 50179.0, 50200.0, 50216.0, 50261.0, 50259.0, 50229.0, 50242.0, 50236.0, 50255.0, 50276.0, 50342.0, 50355.0, 50308.0, 50239.0, 50297.0, 50400.0, 50452.0, 50375.0, 50294.0, 50227.0, 50210.0, 50205.0, 50251.0, 50259.0, 50393.0, 50479.0, 50410.0, 50248.0, 50161.0, 50119.0, 50150.0, 50191.0, 50219.0, 50248.0, 50231.0, 50234.0, 50261.0, 50393.0, 50356.0, 50295.0, 50220.0, 50175.0, 50165.0, 50186.0, 50184.0, 50197.0, 50201.0, 50269.0, 50315.0, 50281.0, 50242.0, 50254.0, 50264.0, 50232.0, 50245.0, 50215.0, 50295.0, 50401.0, 50455.0, 50400.0, 50272.0, 50246.0, 50225.0, 50230.0, 50253.0, 50275.0, 50305.0, 50314.0, 50389.0, 50345.0, 50270.0, 50220.0, 50142.0, 50175.0, 50212.0, 50271.0, 50264.0, 50206.0, 50249.0, 50310.0, 50350.0, 50375.0, 50322.0, 50345.0, 50345.0, 50306.0, 50240.0, 50263.0, 50280.0, 50285.0, 50243.0, 50250.0, 50273.0, 50395.0, 50373.0, 50340.0, 50310.0, 50318.0, 50347.0, 50337.0, 50386.0, 50415.0, 50389.0, 50375.0, 50353.0, 50412.0, 50404.0, 50334.0, 50312.0, 50317.0, 50307.0, 50314.0, 50308.0, 50347.0, 50346.0, 50357.0, 50371.0, 50412.0, 50382.0, 50326.0, 50296.0, 50252.0, 50294.0, 50388.0, 50424.0, 50368.0, 50370.0, 50418.0, 50440.0, 50363.0, 50288.0, 50215.0, 50196.0, 50219.0, 50275.0, 50295.0, 50299.0, 50290.0, 50337.0, 50402.0, 50367.0, 50327.0, 50271.0, 50229.0, 50262.0, 50309.0, 50347.0, 50337.0, 50279.0, 50262.0, 50263.0, 50323.0, 50325.0, 50339.0, 50355.0, 50372.0, 50351.0, 50292.0, 50233.0, 50229.0, 50293.0, 50380.0, 50454.0, 50347.0, 50309.0, 50264.0, 50238.0, 50164.0, 50242.0, 50261.0, 50295.0, 50281.0, 50267.0, 50210.0, 50241.0, 50336.0, 50396.0, 50376.0, 50331.0, 50292.0, 50265.0, 50246.0, 50276.0, 50287.0, 50320.0, 50329.0, 50367.0, 50388.0, 50345.0, 50260.0]
    },
    "slices": {}
  }
}