{
  "AcquisitionMatrixPE": 116,
  "AcquisitionNumber": 1,
  "AcquisitionTime": "17:25:50.782500",
  "BandwidthPerPixelPhaseEncode": 18.539,
  "BaseResolution": 116,
  "BodyPartExamined": "HEAD",
  "ConsistencyInfo": "N4_VD13D_LATEST_20130810",
  "ConversionSoftware": "dcm2niix",
  "ConversionSoftwareVersion": "v1.0.20190410  (JP2:OpenJPEG) (JP-LS:CharLS) GCC5.5.0",
  "DerivedVendorReportedEchoSpacing": 0.000930006,
  "DeviceSerialNumber": "66014",
  "DwellTime": 3e-06,
  "EchoTime": 0.03,
  "EchoTrainLength": 50,
  "EffectiveEchoSpacing": 0.000465003,
  "FlipAngle": 81,
  "ImageComments": "Unaliased_MB3_PE4",
  "ImageOrientationPatientDICOM": [0.999944, -0.0105498, 0.000108669, 0.0104717, 0.991183, -0.132089],
  "ImageType": [
    "ORIGINAL",
    "PRIMARY",
    "M",
    "MB",
    "ND",
    "MOSAIC"
],
  "ImagingFrequency": 123.261,
  "InPlanePhaseEncodingDirectionDICOM": "COL",
  "InstitutionAddress": "Yiheyuan_Road_5_Beijing_Haidian_CN_100871",
  "InstitutionName": "Peking_University",
  "InstitutionalDepartmentName": "Department",
  "MRAcquisitionType": "2D",
  "MagneticFieldStrength": 3,
  "Manufacturer": "Siemens",
  "ManufacturersModelName": "Prisma",
  "Modality": "MR",
  "MultibandAccelerationFactor": 3,
  "ParallelReductionFactorInPlane": 2,
  "PartialFourier": 0.875,
  "PatientPosition": "HFS",
  "PercentPhaseFOV": 100,
  "PhaseEncodingDirection": "j-",
  "PhaseEncodingSteps": 101,
  "PhaseResolution": 1,
  "PixelBandwidth": 1435,
  "ProcedureStepDescription": "Research_Projects_64CH",
  "ProtocolName": "mbep2d_bold_MB3_test1",
  "PulseSequenceDetails": "%CustomerSeq%_cmrr_mbep2d_bold",
  "ReceiveCoilActiveElements": "HC1-7",
  "ReceiveCoilName": "HeadNeck_64",
  "ReconMatrixPE": 116,
  "RefLinesPE": 44,
  "RepetitionTime": 2,
  "SAR": 0.0550082,
  "ScanOptions": "PFP_FS",
  "ScanningSequence": "EP",
  "SequenceName": "epfid2d1_116",
  "SequenceVariant": "SK_SS",
  "SeriesDescription": "mbep2d_bold_MB3_test1",
  "SeriesNumber": 6,
  "ShimSetting": [-3443, -2107, -1981, 355, 5, -259, -18, 12],
  "SliceThickness": 1.9,
  "SliceTiming": [0, 0.9075, 1.815, 0.7425, 1.65, 0.5775, 1.485, 0.4125, 1.32, 0.2475, 1.155, 0.0825, 0.99, 1.8975, 0.825, 1.7325, 0.66, 1.5675, 0.495, 1.4025, 0.33, 1.2375, 0.165, 1.0725, 0, 0.9075, 1.815, 0.7425, 1.65, 0.5775, 1.485, 0.4125, 1.32, 0.2475, 1.155, 0.0825, 0.99, 1.8975, 0.825, 1.7325, 0.66, 1.5675, 0.495, 1.4025, 0.33, 1.2375, 0.165, 1.0725, 0, 0.9075, 1.815, 0.7425, 1.65, 0.5775, 1.485, 0.4125, 1.32, 0.2475, 1.155, 0.0825, 0.99, 1.8975, 0.825, 1.7325, 0.66, 1.5675, 0.495, 1.4025, 0.33, 1.2375, 0.165, 1.0725],
  "SoftwareVersions": "syngo_MR_D13D",
  "SpacingBetweenSlices": 1.9,
  "StationName": "AWP66014",
  "TaskName": "retrieval",
  "TotalReadoutTime": 0.0534753,
  "TxRefAmp": 239.867,
  "WipMemBlock": "e3d6c139-1571-4d6d-b69e-8b319d0af316||Sequence: vd13d/master r/0735857; Nov 19 2014 09:21:40 by eja",
  "dcmmeta_affine": [
    [-1.8964462280273438, 0.019860168918967247, -0.00244301650673151, 108.55986785888672],
    [0.020008262246847153, 1.8798290491104126, -0.2509564161300659, -94.84635162353516],
    [0.00020609657804016024, 0.2505127489566803, 1.8833520412445068, -77.80963897705078],
    [0.0, 0.0, 0.0, 1.0]
],
  "dcmmeta_reorient_transform": [
    [0.0, -1.0, 0.0, 115.0],
    [1.0, 0.0, 0.0, 0.0],
    [0.0, 0.0, 1.0, 0.0],
    [0.0, 0.0, 0.0, 1.0]
],
  "dcmmeta_shape": [116, 116, 72, 289],
  "dcmmeta_slice_dim": 2,
  "dcmmeta_version": 0.6,
  "global": {
    "const": {
      "AcquisitionMatrix": [116, 0, 0, 116],
      "AngioFlag": "N",
      "BitsAllocated": 16,
      "BitsStored": 16,
      "BodyPartExamined": "HEAD",
      "Columns": 1044,
      "EchoNumbers": 1,
      "EchoTime": 30.0,
      "EchoTrainLength": 50,
      "FlipAngle": 81.0,
      "HighBit": 15,
      "ImageOrientationPatient": [0.99994434329581, -0.0105498105068, 0.00010866910428, 0.01047172545541, 0.99118260790067, -0.1320885337991],
      "ImagePositionPatient": [-1000.0099262793, -984.2908584641, 67.141607011044],
      "ImageType": [
        "ORIGINAL",
        "PRIMARY",
        "M",
        "MB",
        "ND",
        "MOSAIC"
],
      "ImagedNucleus": "1H",
      "ImagingFrequency": 123.260593,
      "InPlanePhaseEncodingDirection": "COL",
      "LargestImagePixelValue": 65535,
      "MRAcquisitionType": "2D",
      "MagneticFieldStrength": 3.0,
      "Manufacturer": "SIEMENS",
      "ManufacturerModelName": "Prisma",
      "Modality": "MR",
      "NumberOfAverages": 1.0,
      "NumberOfPhaseEncodingSteps": 101,
      "PercentPhaseFieldOfView": 100.0,
      "PercentSampling": 100.0,
      "PerformedProcedureStepStartTime": "170952.860000",
      "PhotometricInterpretation": "MONOCHROME2",
      "PixelBandwidth": 1435.0,
      "PixelRepresentation": 0,
      "PixelSpacing": [1.8965517282486, 1.8965517282486],
      "ProtocolName": "mbep2d_bold_MB3_test1",
      "RepetitionTime": 2000.0,
      "Rows": 1044,
      "SAR": 0.0550081725856,
      "SamplesPerPixel": 1,
      "ScanOptions": [
        "PFP",
        "FS"
],
      "ScanningSequence": "EP",
      "SequenceName": "epfid2d1_116",
      "SequenceVariant": [
        "SK",
        "SS"
],
      "SeriesDescription": "mbep2d_bold_MB3_test1",
      "SeriesNumber": 6,
      "SeriesTime": "172605.927000",
      "SliceLocation": -64.739924461959,
      "SliceThickness": 1.8999999761581,
      "SmallestImagePixelValue": 0,
      "SoftwareVersions": "syngo MR D13D",
      "SpacingBetweenSlices": 1.9000000494591,
      "SpecificCharacterSet": "ISO_IR 100",
      "StudyID": "1",
      "StudyTime": "170952.781000",
      "TimeOfLastCalibration": ["123723.000000", "123723.000000"],
      "TransmitCoilName": "Body",
      "VariableFlipAngleFlag": "N",
      "WindowCenterWidthExplanation": "Algo1",
      "dBdt": 0.0},
    "slices": {}
  },
  "time": {
    "samples": {
      "AcquisitionNumber": [1, 2, 3, 4, 5, 6, 7, 8, 9, 10, 11, 12, 13, 14, 15, 16, 17, 18, 19, 20, 21, 22, 23, 24, 25, 26, 27, 28, 29, 30, 31, 32, 33, 34, 35, 36, 37, 38, 39, 40, 41, 42, 43, 44, 45, 46, 47, 48, 49, 50, 51, 52, 53, 54, 55, 56, 57, 58, 59, 60, 61, 62, 63, 64, 65, 66, 67, 68, 69, 70, 71, 72, 73, 74, 75, 76, 77, 78, 79, 80, 81, 82, 83, 84, 85, 86, 87, 88, 89, 90, 91, 92, 93, 94, 95, 96, 97, 98, 99, 100, 101, 102, 103, 104, 105, 106, 107, 108, 109, 110, 111, 112, 113, 114, 115, 116, 117, 118, 119, 120, 121, 122, 123, 124, 125, 126, 127, 128, 129, 130, 131, 132, 133, 134, 135, 136, 137, 138, 139, 140, 141, 142, 143, 144, 145, 146, 147, 148, 149, 150, 151, 152, 153, 154, 155, 156, 157, 158, 159, 160, 161, 162, 163, 164, 165, 166, 167, 168, 169, 170, 171, 172, 173, 174, 175, 176, 177, 178, 179, 180, 181, 182, 183, 184, 185, 186, 187, 188, 189, 190, 191, 192, 193, 194, 195, 196, 197, 198, 199, 200, 201, 202, 203, 204, 205, 206, 207, 208, 209, 210, 211, 212, 213, 214, 215, 216, 217, 218, 219, 220, 221, 222, 223, 224, 225, 226, 227, 228, 229, 230, 231, 232, 233, 234, 235, 236, 237, 238, 239, 240, 241, 242, 243, 244, 245, 246, 247, 248, 249, 250, 251, 252, 253, 254, 255, 256, 257, 258, 259, 260, 261, 262, 263, 264, 265, 266, 267, 268, 269, 270, 271, 272, 273, 274, 275, 276, 277, 278, 279, 280, 281, 282, 283, 284, 285, 286, 287, 288, 289],
      "AcquisitionTime": ["172550.782500", "172552.782500", "172554.782500", "172556.782500", "172558.782500", "172600.782500", "172602.782500", "172604.782500", "172606.782500", "172608.782500", "172610.782500", "172612.782500", "172614.782500", "172616.782500", "172618.782500", "172620.782500", "172622.782500", "172624.782500", "172626.782500", "172628.782500", "172630.782500", "172632.782500", "172634.782500", "172636.782500", "172638.782500", "172640.782500", "172642.782500", "172644.782500", "172646.782500", "172648.782500", "172650.782500", "172652.782500", "172654.782500", "172656.782500", "172658.782500", "172700.782500", "172702.782500", "172704.782500", "172706.782500", "172708.782500", "172710.782500", "172712.782500", "172714.782500", "172716.782500", "172718.782500", "172720.782500", "172722.782500", "172724.782500", "172726.782500", "172728.782500", "172730.782500", "172732.782500", "172734.782500", "172736.782500", "172738.782500", "172740.782500", "172742.782500", "172744.782500", "172746.782500", "172748.782500", "172750.782500", "172752.782500", "172754.782500", "172756.782500", "172758.782500", "172800.782500", "172802.782500", "172804.782500", "172806.782500", "172808.782500", "172810.782500", "172812.782500", "172814.782500", "172816.782500", "172818.782500", "172820.782500", "172822.782500", "172824.782500", "172826.782500", "172828.782500", "172830.782500", "172832.782500", "172834.782500", "172836.782500", "172838.782500", "172840.782500", "172842.782500", "172844.782500", "172846.782500", "172848.782500", "172850.782500", "172852.782500", "172854.782500", "172856.782500", "172858.782500", "172900.782500", "172902.782500", "172904.782500", "172906.782500", "172908.782500", "172910.782500", "172912.782500", "172914.782500", "172916.782500", "172918.782500", "172920.782500", "172922.782500", "172924.782500", "172926.782500", "172928.782500", "172930.782500", "172932.782500", "172934.782500", "172936.782500", "172938.782500", "172940.782500", "172942.782500", "172944.782500", "172946.782500", "172948.782500", "172950.782500", "172952.782500", "172954.782500", "172956.782500", "172958.782500", "173000.782500", "173002.782500", "173004.782500", "173006.782500", "173008.782500", "173010.782500", "173012.782500", "173014.782500", "173016.782500", "173018.782500", "173020.782500", "173022.782500", "173024.782500", "173026.782500", "173028.785000", "173030.785000", "173032.785000", "173034.785000", "173036.785000", "173038.785000", "173040.785000", "173042.785000", "173044.785000", "173046.785000", "173048.785000", "173050.785000", "173052.785000", "173054.785000", "173056.785000", "173058.785000", "173100.785000", "173102.785000", "173104.785000", "173106.785000", "173108.785000", "173110.785000", "173112.785000", "173114.785000", "173116.785000", "173118.785000", "173120.785000", "173122.785000", "173124.785000", "173126.785000", "173128.785000", "173130.785000", "173132.785000", "173134.785000", "173136.785000", "173138.785000", "173140.785000", "173142.785000", "173144.785000", "173146.785000", "173148.785000", "173150.785000", "173152.785000", "173154.785000", "173156.785000", "173158.785000", "173200.785000", "173202.785000", "173204.785000", "173206.785000", "173208.785000", "173210.785000", "173212.785000", "173214.785000", "173216.785000", "173218.785000", "173220.785000", "173222.785000", "173224.785000", "173226.785000", "173228.785000", "173230.785000", "173232.785000", "173234.785000", "173236.785000", "173238.785000", "173240.785000", "173242.785000", "173244.785000", "173246.785000", "173248.785000", "173250.785000", "173252.785000", "173254.785000", "173256.785000", "173258.785000", "173300.785000", "173302.785000", "173304.785000", "173306.785000", "173308.785000", "173310.785000", "173312.785000", "173314.785000", "173316.785000", "173318.785000", "173320.785000", "173322.785000", "173324.785000", "173326.785000", "173328.785000", "173330.785000", "173332.785000", "173334.785000", "173336.785000", "173338.785000", "173340.785000", "173342.785000", "173344.785000", "173346.785000", "173348.785000", "173350.785000", "173352.785000", "173354.785000", "173356.785000", "173358.785000", "173400.785000", "173402.785000", "173404.785000", "173406.785000", "173408.785000", "173410.785000", "173412.785000", "173414.785000", "173416.785000", "173418.785000", "173420.785000", "173422.785000", "173424.785000", "173426.785000", "173428.785000", "173430.785000", "173432.785000", "173434.785000", "173436.785000", "173438.785000", "173440.785000", "173442.785000", "173444.785000", "173446.785000", "173448.785000", "173450.785000", "173452.785000", "173454.785000", "173456.785000", "173458.785000", "173500.785000", "173502.785000", "173504.785000", "173506.785000", "173508.785000", "173510.785000", "173512.785000", "173514.785000", "173516.785000", "173518.785000", "173520.785000", "173522.785000", "173524.785000", "173526.785000"],
      "ContentTime": ["172605.933000", "172606.926000", "172607.925000", "172607.929000", "172608.925000", "172608.930000", "172609.925000", "172610.926000", "172611.925000", "172612.926000", "172613.925000", "172615.427000", "172617.427000", "172619.427000", "172621.427000", "172623.427000", "172625.426000", "172627.426000", "172629.426000", "172631.428000", "172633.427000", "172635.427000", "172637.427000", "172639.425000", "172641.427000", "172643.426000", "172645.426000", "172647.426000", "172649.427000", "172651.425000", "172653.425000", "172655.426000", "172657.427000", "172659.427000", "172701.426000", "172703.426000", "172705.426000", "172707.427000", "172709.427000", "172711.427000", "172713.427000", "172715.427000", "172717.426000", "172719.426000", "172721.424000", "172723.425000", "172725.446000", "172727.427000", "172729.427000", "172731.427000", "172733.427000", "172735.427000", "172737.426000", "172739.425000", "172741.427000", "172743.427000", "172745.427000", "172747.427000", "172749.428000", "172751.427000", "172753.426000", "172755.426000", "172757.426000", "172759.426000", "172801.426000", "172803.426000", "172805.425000", "172807.428000", "172809.428000", "172811.426000", "172813.426000", "172815.426000", "172817.427000", "172819.427000", "172821.427000", "172823.427000", "172825.427000", "172827.426000", "172829.426000", "172831.426000", "172833.426000", "172835.427000", "172837.427000", "172839.427000", "172841.427000", "172843.427000", "172845.427000", "172847.426000", "172849.426000", "172851.427000", "172853.427000", "172855.427000", "172857.427000", "172859.427000", "172901.426000", "172903.427000", "172905.426000", "172907.426000", "172909.427000", "172911.427000", "172913.428000", "172915.427000", "172917.426000", "172919.427000", "172921.426000", "172923.426000", "172925.426000", "172927.426000", "172929.427000", "172931.427000", "172933.428000", "172935.427000", "172937.426000", "172939.426000", "172941.426000", "172943.427000", "172945.427000", "172947.427000", "172949.427000", "172951.427000", "172953.427000", "172955.426000", "172957.426000", "172959.426000", "173001.427000", "173003.427000", "173005.427000", "173007.426000", "173009.426000", "173011.426000", "173013.425000", "173015.425000", "173017.425000", "173019.426000", "173021.425000", "173023.426000", "173025.426000", "173027.426000", "173029.427000", "173031.425000", "173033.425000", "173035.425000", "173037.426000", "173039.426000", "173041.425000", "173043.426000", "173045.426000", "173047.425000", "173049.425000", "173051.425000", "173053.425000", "173055.426000", "173057.426000", "173059.426000", "173101.426000", "173103.427000", "173105.425000", "173107.426000", "173109.425000", "173111.427000", "173113.427000", "173115.426000", "173117.426000", "173119.427000", "173121.426000", "173123.426000", "173125.426000", "173127.426000", "173129.427000", "173131.427000", "173133.427000", "173135.427000", "173137.427000", "173139.427000", "173141.427000", "173143.426000", "173145.439000", "173147.427000", "173149.428000", "173151.427000", "173153.425000", "173155.428000", "173157.426000", "173159.426000", "173201.426000", "173203.425000", "173205.427000", "173207.427000", "173209.427000", "173211.427000", "173213.427000", "173215.426000", "173217.426000", "173219.426000", "173221.427000", "173223.427000", "173225.427000", "173227.427000", "173229.428000", "173231.427000", "173233.426000", "173235.426000", "173237.426000", "173239.427000", "173241.427000", "173243.427000", "173245.427000", "173247.427000", "173249.427000", "173251.426000", "173253.426000", "173255.427000", "173257.427000", "173259.427000", "173301.427000", "173303.427000", "173305.427000", "173307.426000", "173309.426000", "173311.427000", "173313.426000", "173315.427000", "173317.427000", "173319.427000", "173321.426000", "173323.427000", "173325.426000", "173327.427000", "173329.426000", "173331.427000", "173333.427000", "173335.427000", "173337.427000", "173339.427000", "173341.427000", "173343.426000", "173345.424000", "173347.426000", "173349.427000", "173351.428000", "173353.427000", "173355.427000", "173357.428000", "173359.425000", "173401.426000", "173403.426000", "173405.427000", "173407.427000", "173409.427000", "173411.427000", "173413.427000", "173415.427000", "173417.426000", "173419.427000", "173421.427000", "173423.427000", "173425.428000", "173427.428000", "173429.427000", "173431.427000", "173433.427000", "173435.426000", "173437.426000", "173439.426000", "173441.427000", "173443.427000", "173445.427000", "173447.428000", "173449.427000", "173451.427000", "173453.426000", "173455.426000", "173457.426000", "173459.426000", "173501.425000", "173503.426000", "173505.427000", "173507.427000", "173509.426000", "173511.426000", "173513.426000", "173515.427000", "173517.426000", "173519.427000", "173521.427000", "173523.427000", "173525.447000", "173527.426000", "173529.019000"],
      "InstanceCreationTime": ["172605.933000", "172606.926000", "172607.925000", "172607.929000", "172608.925000", "172608.930000", "172609.925000", "172610.926000", "172611.925000", "172612.926000", "172613.925000", "172615.427000", "172617.427000", "172619.427000", "172621.427000", "172623.427000", "172625.426000", "172627.426000", "172629.426000", "172631.428000", "172633.427000", "172635.427000", "172637.427000", "172639.425000", "172641.427000", "172643.426000", "172645.426000", "172647.426000", "172649.427000", "172651.425000", "172653.425000", "172655.426000", "172657.427000", "172659.427000", "172701.426000", "172703.426000", "172705.426000", "172707.427000", "172709.427000", "172711.427000", "172713.427000", "172715.427000", "172717.426000", "172719.426000", "172721.424000", "172723.425000", "172725.446000", "172727.427000", "172729.427000", "172731.427000", "172733.427000", "172735.427000", "172737.426000", "172739.425000", "172741.427000", "172743.427000", "172745.427000", "172747.427000", "172749.428000", "172751.427000", "172753.426000", "172755.426000", "172757.426000", "172759.426000", "172801.426000", "172803.426000", "172805.425000", "172807.428000", "172809.428000", "172811.426000", "172813.426000", "172815.426000", "172817.427000", "172819.427000", "172821.427000", "172823.427000", "172825.427000", "172827.426000", "172829.426000", "172831.426000", "172833.426000", "172835.427000", "172837.427000", "172839.427000", "172841.427000", "172843.427000", "172845.427000", "172847.426000", "172849.426000", "172851.427000", "172853.427000", "172855.427000", "172857.427000", "172859.427000", "172901.426000", "172903.427000", "172905.426000", "172907.426000", "172909.427000", "172911.427000", "172913.428000", "172915.427000", "172917.426000", "172919.427000", "172921.426000", "172923.426000", "172925.426000", "172927.426000", "172929.427000", "172931.427000", "172933.428000", "172935.427000", "172937.426000", "172939.426000", "172941.426000", "172943.427000", "172945.427000", "172947.427000", "172949.427000", "172951.427000", "172953.427000", "172955.426000", "172957.426000", "172959.426000", "173001.427000", "173003.427000", "173005.427000", "173007.426000", "173009.426000", "173011.426000", "173013.425000", "173015.425000", "173017.425000", "173019.426000", "173021.425000", "173023.426000", "173025.426000", "173027.426000", "173029.427000", "173031.425000", "173033.425000", "173035.425000", "173037.426000", "173039.426000", "173041.425000", "173043.426000", "173045.426000", "173047.425000", "173049.425000", "173051.425000", "173053.425000", "173055.426000", "173057.426000", "173059.426000", "173101.426000", "173103.427000", "173105.425000", "173107.426000", "173109.425000", "173111.427000", "173113.427000", "173115.426000", "173117.426000", "173119.427000", "173121.426000", "173123.426000", "173125.426000", "173127.426000", "173129.427000", "173131.427000", "173133.427000", "173135.427000", "173137.427000", "173139.427000", "173141.427000", "173143.426000", "173145.439000", "173147.427000", "173149.428000", "173151.427000", "173153.425000", "173155.428000", "173157.426000", "173159.426000", "173201.426000", "173203.425000", "173205.427000", "173207.427000", "173209.427000", "173211.427000", "173213.427000", "173215.426000", "173217.426000", "173219.426000", "173221.427000", "173223.427000", "173225.427000", "173227.427000", "173229.428000", "173231.427000", "173233.426000", "173235.426000", "173237.426000", "173239.427000", "173241.427000", "173243.427000", "173245.427000", "173247.427000", "173249.427000", "173251.426000", "173253.426000", "173255.427000", "173257.427000", "173259.427000", "173301.427000", "173303.427000", "173305.427000", "173307.426000", "173309.426000", "173311.427000", "173313.426000", "173315.427000", "173317.427000", "173319.427000", "173321.426000", "173323.427000", "173325.426000", "173327.427000", "173329.426000", "173331.427000", "173333.427000", "173335.427000", "173337.427000", "173339.427000", "173341.427000", "173343.426000", "173345.424000", "173347.426000", "173349.427000", "173351.428000", "173353.427000", "173355.427000", "173357.428000", "173359.425000", "173401.426000", "173403.426000", "173405.427000", "173407.427000", "173409.427000", "173411.427000", "173413.427000", "173415.427000", "173417.426000", "173419.427000", "173421.427000", "173423.427000", "173425.428000", "173427.428000", "173429.427000", "173431.427000", "173433.427000", "173435.426000", "173437.426000", "173439.426000", "173441.427000", "173443.427000", "173445.427000", "173447.428000", "173449.427000", "173451.427000", "173453.426000", "173455.426000", "173457.426000", "173459.426000", "173501.425000", "173503.426000", "173505.427000", "173507.427000", "173509.426000", "173511.426000", "173513.426000", "173515.427000", "173517.426000", "173519.427000", "173521.427000", "173523.427000", "173525.447000", "173527.426000", "173529.019000"],
      "InstanceNumber": [1, 2, 3, 4, 5, 6, 7, 8, 9, 10, 11, 12, 13, 14, 15, 16, 17, 18, 19, 20, 21, 22, 23, 24, 25, 26, 27, 28, 29, 30, 31, 32, 33, 34, 35, 36, 37, 38, 39, 40, 41, 42, 43, 44, 45, 46, 47, 48, 49, 50, 51, 52, 53, 54, 55, 56, 57, 58, 59, 60, 61, 62, 63, 64, 65, 66, 67, 68, 69, 70, 71, 72, 73, 74, 75, 76, 77, 78, 79, 80, 81, 82, 83, 84, 85, 86, 87, 88, 89, 90, 91, 92, 93, 94, 95, 96, 97, 98, 99, 100, 101, 102, 103, 104, 105, 106, 107, 108, 109, 110, 111, 112, 113, 114, 115, 116, 117, 118, 119, 120, 121, 122, 123, 124, 125, 126, 127, 128, 129, 130, 131, 132, 133, 134, 135, 136, 137, 138, 139, 140, 141, 142, 143, 144, 145, 146, 147, 148, 149, 150, 151, 152, 153, 154, 155, 156, 157, 158, 159, 160, 161, 162, 163, 164, 165, 166, 167, 168, 169, 170, 171, 172, 173, 174, 175, 176, 177, 178, 179, 180, 181, 182, 183, 184, 185, 186, 187, 188, 189, 190, 191, 192, 193, 194, 195, 196, 197, 198, 199, 200, 201, 202, 203, 204, 205, 206, 207, 208, 209, 210, 211, 212, 213, 214, 215, 216, 217, 218, 219, 220, 221, 222, 223, 224, 225, 226, 227, 228, 229, 230, 231, 232, 233, 234, 235, 236, 237, 238, 239, 240, 241, 242, 243, 244, 245, 246, 247, 248, 249, 250, 251, 252, 253, 254, 255, 256, 257, 258, 259, 260, 261, 262, 263, 264, 265, 266, 267, 268, 269, 270, 271, 272, 273, 274, 275, 276, 277, 278, 279, 280, 281, 282, 283, 284, 285, 286, 287, 288, 289],
      "WindowCenter": [19036.0, 18999.0, 18993.0, 18975.0, 18958.0, 18939.0, 18952.0, 18988.0, 18987.0, 18963.0, 18950.0, 18930.0, 18949.0, 18951.0, 18940.0, 18958.0, 18949.0, 18966.0, 18964.0, 18971.0, 18962.0, 18943.0, 18930.0, 18932.0, 18980.0, 18965.0, 18967.0, 18958.0, 18946.0, 18941.0, 18942.0, 18970.0, 18964.0, 18955.0, 18937.0, 18941.0, 18942.0, 18935.0, 18914.0, 18926.0, 18943.0, 18952.0, 18970.0, 18954.0, 18929.0, 18895.0, 18908.0, 18915.0, 18946.0, 18956.0, 18973.0, 18940.0, 18918.0, 18897.0, 18924.0, 18939.0, 18934.0, 18929.0, 18905.0, 18936.0, 18954.0, 18976.0, 18952.0, 18919.0, 18922.0, 18921.0, 18931.0, 18956.0, 18949.0, 18940.0, 18948.0, 18952.0, 18947.0, 18964.0, 18950.0, 18939.0, 18971.0, 18950.0, 18960.0, 18954.0, 18963.0, 18962.0, 18945.0, 18941.0, 18932.0, 18947.0, 18970.0, 18963.0, 18935.0, 18914.0, 18931.0, 18954.0, 18956.0, 18933.0, 18923.0, 18917.0, 18930.0, 18984.0, 18956.0, 18926.0, 18922.0, 18943.0, 18968.0, 18977.0, 18958.0, 18930.0, 18923.0, 18924.0, 18960.0, 18980.0, 18985.0, 18974.0, 18966.0, 18962.0, 18961.0, 18968.0, 18941.0, 18909.0, 18924.0, 18952.0, 18981.0, 18996.0, 18972.0, 18953.0, 18948.0, 18940.0, 18949.0, 18977.0, 18955.0, 18945.0, 18955.0, 18952.0, 18965.0, 18993.0, 18983.0, 18959.0, 18969.0, 18963.0, 18974.0, 18981.0, 18981.0, 18969.0, 18966.0, 18965.0, 18968.0, 18980.0, 18943.0, 18963.0, 18956.0, 18979.0, 18973.0, 18972.0, 18966.0, 18968.0, 18984.0, 18980.0, 18971.0, 18959.0, 18939.0, 18928.0, 18941.0, 18957.0, 18988.0, 18977.0, 18948.0, 18936.0, 18924.0, 18959.0, 18965.0, 18952.0, 18947.0, 18957.0, 18940.0, 18960.0, 18975.0, 18971.0, 18959.0, 18935.0, 18939.0, 18971.0, 19008.0, 18969.0, 18947.0, 18946.0, 18951.0, 18989.0, 19003.0, 18981.0, 18969.0, 18940.0, 18934.0, 18948.0, 18960.0, 18973.0, 18951.0, 18937.0, 18935.0, 18974.0, 18964.0, 18946.0, 18937.0, 18923.0, 18946.0, 18957.0, 18990.0, 18963.0, 18946.0, 18936.0, 18926.0, 18964.0, 18968.0, 18954.0, 18933.0, 18928.0, 18955.0, 18980.0, 19014.0, 18992.0, 18973.0, 18955.0, 18943.0, 18980.0, 18989.0, 18980.0, 18944.0, 18919.0, 18951.0, 18980.0, 18990.0, 18983.0, 18962.0, 18936.0, 18957.0, 19001.0, 19040.0, 19035.0, 19009.0, 18967.0, 18945.0, 18979.0, 18999.0, 19013.0, 18980.0, 18958.0, 18944.0, 18957.0, 18999.0, 19051.0, 19018.0, 18975.0, 18955.0, 18957.0, 19006.0, 19020.0, 19002.0, 18993.0, 18982.0, 18982.0, 19015.0, 18986.0, 18947.0, 18943.0, 18928.0, 18957.0, 18994.0, 19031.0, 19043.0, 19011.0, 18962.0, 18955.0, 18981.0, 19010.0, 18983.0, 18970.0, 18971.0, 19002.0, 19015.0, 18975.0, 18961.0, 18966.0, 18989.0, 18993.0, 18990.0, 18977.0, 18946.0, 18945.0, 18944.0, 18983.0, 18997.0],
      "WindowWidth": [47851.0, 47858.0, 47852.0, 47744.0, 47685.0, 47661.0, 47683.0, 47744.0, 47778.0, 47726.0, 47690.0, 47665.0, 47678.0, 47684.0, 47698.0, 47674.0, 47703.0, 47772.0, 47785.0, 47733.0, 47735.0, 47664.0, 47678.0, 47715.0, 47821.0, 47774.0, 47740.0, 47732.0, 47712.0, 47744.0, 47757.0, 47716.0, 47773.0, 47706.0, 47693.0, 47709.0, 47663.0, 47598.0, 47622.0, 47676.0, 47733.0, 47763.0, 47751.0, 47694.0, 47640.0, 47581.0, 47590.0, 47643.0, 47713.0, 47744.0, 47767.0, 47721.0, 47595.0, 47583.0, 47662.0, 47695.0, 47633.0, 47593.0, 47602.0, 47683.0, 47754.0, 47719.0, 47692.0, 47670.0, 47600.0, 47623.0, 47679.0, 47661.0, 47691.0, 47709.0, 47713.0, 47717.0, 47716.0, 47713.0, 47680.0, 47674.0, 47682.0, 47681.0, 47689.0, 47685.0, 47688.0, 47734.0, 47663.0, 47626.0, 47646.0, 47694.0, 47766.0, 47723.0, 47643.0, 47642.0, 47680.0, 47721.0, 47754.0, 47642.0, 47622.0, 47632.0, 47726.0, 47776.0, 47719.0, 47685.0, 47672.0, 47734.0, 47775.0, 47710.0, 47696.0, 47689.0, 47659.0, 47637.0, 47712.0, 47797.0, 47788.0, 47790.0, 47738.0, 47735.0, 47748.0, 47683.0, 47638.0, 47606.0, 47638.0, 47681.0, 47795.0, 47795.0, 47777.0, 47704.0, 47688.0, 47697.0, 47714.0, 47700.0, 47694.0, 47688.0, 47694.0, 47715.0, 47749.0, 47734.0, 47775.0, 47721.0, 47704.0, 47736.0, 47732.0, 47715.0, 47741.0, 47740.0, 47725.0, 47761.0, 47775.0, 47723.0, 47723.0, 47700.0, 47707.0, 47712.0, 47743.0, 47674.0, 47669.0, 47716.0, 47715.0, 47747.0, 47753.0, 47674.0, 47637.0, 47583.0, 47639.0, 47745.0, 47823.0, 47744.0, 47664.0, 47632.0, 47627.0, 47747.0, 47763.0, 47705.0, 47667.0, 47673.0, 47684.0, 47723.0, 47744.0, 47718.0, 47675.0, 47647.0, 47663.0, 47779.0, 47815.0, 47706.0, 47643.0, 47644.0, 47694.0, 47803.0, 47785.0, 47668.0, 47623.0, 47624.0, 47609.0, 47679.0, 47735.0, 47729.0, 47609.0, 47610.0, 47658.0, 47769.0, 47713.0, 47630.0, 47624.0, 47650.0, 47677.0, 47769.0, 47767.0, 47702.0, 47618.0, 47587.0, 47606.0, 47751.0, 47788.0, 47670.0, 47633.0, 47653.0, 47708.0, 47833.0, 47856.0, 47733.0, 47651.0, 47626.0, 47689.0, 47786.0, 47802.0, 47700.0, 47618.0, 47578.0, 47684.0, 47797.0, 47791.0, 47669.0, 47619.0, 47614.0, 47674.0, 47744.0, 47863.0, 47787.0, 47687.0, 47682.0, 47667.0, 47737.0, 47797.0, 47746.0, 47667.0, 47604.0, 47618.0, 47713.0, 47786.0, 47846.0, 47785.0, 47674.0, 47625.0, 47698.0, 47791.0, 47788.0, 47764.0, 47699.0, 47739.0, 47775.0, 47772.0, 47740.0, 47618.0, 47544.0, 47583.0, 47687.0, 47807.0, 47834.0, 47841.0, 47782.0, 47664.0, 47649.0, 47752.0, 47734.0, 47682.0, 47660.0, 47720.0, 47801.0, 47808.0, 47675.0, 47641.0, 47681.0, 47768.0, 47819.0, 47769.0, 47676.0, 47620.0, 47607.0, 47654.0, 47728.0, 47832.0]
    },
    "slices": {}
  }
}