{
  "AcquisitionMatrixPE": 116,
  "AcquisitionNumber": 1,
  "AcquisitionTime": "17:47:0.835000",
  "BandwidthPerPixelPhaseEncode": 18.539,
  "BaseResolution": 116,
  "BodyPartExamined": "HEAD",
  "ConsistencyInfo": "N4_VD13D_LATEST_20130810",
  "ConversionSoftware": "dcm2niix",
  "ConversionSoftwareVersion": "v1.0.20190410  (JP2:OpenJPEG) (JP-LS:CharLS) GCC5.5.0",
  "DerivedVendorReportedEchoSpacing": 0.000930006,
  "DeviceSerialNumber": "66014",
  "DwellTime": 3e-06,
  "EchoTime": 0.03,
  "EchoTrainLength": 50,
  "EffectiveEchoSpacing": 0.000465003,
  "FlipAngle": 81,
  "ImageComments": "Unaliased_MB3_PE4",
  "ImageOrientationPatientDICOM": [0.999944, -0.0105498, 0.000108669, 0.0104717, 0.991183, -0.132089],
  "ImageType": [
    "ORIGINAL",
    "PRIMARY",
    "M",
    "MB",
    "ND",
    "MOSAIC"
],
  "ImagingFrequency": 123.261,
  "InPlanePhaseEncodingDirectionDICOM": "COL",
  "InstitutionAddress": "Yiheyuan_Road_5_Beijing_Haidian_CN_100871",
  "InstitutionName": "Peking_University",
  "InstitutionalDepartmentName": "Department",
  "MRAcquisitionType": "2D",
  "MagneticFieldStrength": 3,
  "Manufacturer": "Siemens",
  "ManufacturersModelName": "Prisma",
  "Modality": "MR",
  "MultibandAccelerationFactor": 3,
  "ParallelReductionFactorInPlane": 2,
  "PartialFourier": 0.875,
  "PatientPosition": "HFS",
  "PercentPhaseFOV": 100,
  "PhaseEncodingDirection": "j-",
  "PhaseEncodingSteps": 101,
  "PhaseResolution": 1,
  "PixelBandwidth": 1435,
  "ProcedureStepDescription": "Research_Projects_64CH",
  "ProtocolName": "mbep2d_bold_MB3_test3",
  "PulseSequenceDetails": "%CustomerSeq%_cmrr_mbep2d_bold",
  "ReceiveCoilActiveElements": "HC1-7",
  "ReceiveCoilName": "HeadNeck_64",
  "ReconMatrixPE": 116,
  "RefLinesPE": 44,
  "RepetitionTime": 2,
  "SAR": 0.0550082,
  "ScanOptions": "PFP_FS",
  "ScanningSequence": "EP",
  "SequenceName": "epfid2d1_116",
  "SequenceVariant": "SK_SS",
  "SeriesDescription": "mbep2d_bold_MB3_test3",
  "SeriesNumber": 8,
  "ShimSetting": [-3443, -2107, -1981, 355, 5, -259, -18, 12],
  "SliceThickness": 1.9,
  "SliceTiming": [0, 0.9075, 1.815, 0.7425, 1.65, 0.5775, 1.485, 0.4125, 1.32, 0.2475, 1.155, 0.0825, 0.99, 1.8975, 0.825, 1.7325, 0.66, 1.5675, 0.495, 1.4025, 0.33, 1.2375, 0.165, 1.0725, 0, 0.9075, 1.815, 0.7425, 1.65, 0.5775, 1.485, 0.4125, 1.32, 0.2475, 1.155, 0.0825, 0.99, 1.8975, 0.825, 1.7325, 0.66, 1.5675, 0.495, 1.4025, 0.33, 1.2375, 0.165, 1.0725, 0, 0.9075, 1.815, 0.7425, 1.65, 0.5775, 1.485, 0.4125, 1.32, 0.2475, 1.155, 0.0825, 0.99, 1.8975, 0.825, 1.7325, 0.66, 1.5675, 0.495, 1.4025, 0.33, 1.2375, 0.165, 1.0725],
  "SoftwareVersions": "syngo_MR_D13D",
  "SpacingBetweenSlices": 1.9,
  "StationName": "AWP66014",
  "TaskName": "retrieval",
  "TotalReadoutTime": 0.0534753,
  "TxRefAmp": 239.867,
  "WipMemBlock": "024efb3b-aeb7-45c1-b231-d01d1052830b||Sequence: vd13d/master r/0735857; Nov 19 2014 09:21:40 by eja",
  "dcmmeta_affine": [
    [-1.8964462280273438, 0.019860168918967247, -0.00244301650673151, 108.55986785888672],
    [0.020008262246847153, 1.8798290491104126, -0.2509564161300659, -94.84635162353516],
    [0.00020609657804016024, 0.2505127489566803, 1.8833520412445068, -77.80963897705078],
    [0.0, 0.0, 0.0, 1.0]
],
  "dcmmeta_reorient_transform": [
    [0.0, -1.0, 0.0, 115.0],
    [1.0, 0.0, 0.0, 0.0],
    [0.0, 0.0, 1.0, 0.0],
    [0.0, 0.0, 0.0, 1.0]
],
  "dcmmeta_shape": [116, 116, 72, 289],
  "dcmmeta_slice_dim": 2,
  "dcmmeta_version": 0.6,
  "global": {
    "const": {
      "AcquisitionMatrix": [116, 0, 0, 116],
      "AngioFlag": "N",
      "BitsAllocated": 16,
      "BitsStored": 16,
      "BodyPartExamined": "HEAD",
      "Columns": 1044,
      "EchoNumbers": 1,
      "EchoTime": 30.0,
      "EchoTrainLength": 50,
      "FlipAngle": 81.0,
      "HighBit": 15,
      "ImageOrientationPatient": [0.99994434329581, -0.0105498105068, 0.00010866910428, 0.01047172545541, 0.99118260790067, -0.1320885337991],
      "ImagePositionPatient": [-1000.0099262793, -984.2908584641, 67.141607011044],
      "ImageType": [
        "ORIGINAL",
        "PRIMARY",
        "M",
        "MB",
        "ND",
        "MOSAIC"
],
      "ImagedNucleus": "1H",
      "ImagingFrequency": 123.260599,
      "InPlanePhaseEncodingDirection": "COL",
      "LargestImagePixelValue": 65535,
      "MRAcquisitionType": "2D",
      "MagneticFieldStrength": 3.0,
      "Manufacturer": "SIEMENS",
      "ManufacturerModelName": "Prisma",
      "Modality": "MR",
      "NumberOfAverages": 1.0,
      "NumberOfPhaseEncodingSteps": 101,
      "PercentPhaseFieldOfView": 100.0,
      "PercentSampling": 100.0,
      "PerformedProcedureStepStartTime": "170952.860000",
      "PhotometricInterpretation": "MONOCHROME2",
      "PixelBandwidth": 1435.0,
      "PixelRepresentation": 0,
      "PixelSpacing": [1.8965517282486, 1.8965517282486],
      "ProtocolName": "mbep2d_bold_MB3_test3",
      "RepetitionTime": 2000.0,
      "Rows": 1044,
      "SAR": 0.05500817256076,
      "SamplesPerPixel": 1,
      "ScanOptions": [
        "PFP",
        "FS"
],
      "ScanningSequence": "EP",
      "SequenceName": "epfid2d1_116",
      "SequenceVariant": [
        "SK",
        "SS"
],
      "SeriesDescription": "mbep2d_bold_MB3_test3",
      "SeriesNumber": 8,
      "SeriesTime": "174715.187000",
      "SliceLocation": -64.739924461959,
      "SliceThickness": 1.8999999761581,
      "SmallestImagePixelValue": 0,
      "SoftwareVersions": "syngo MR D13D",
      "SpacingBetweenSlices": 1.9000000494591,
      "SpecificCharacterSet": "ISO_IR 100",
      "StudyID": "1",
      "StudyTime": "170952.781000",
      "TimeOfLastCalibration": ["123723.000000", "123723.000000"],
      "TransmitCoilName": "Body",
      "VariableFlipAngleFlag": "N",
      "WindowCenterWidthExplanation": "Algo1",
      "dBdt": 0.0},
    "slices": {}
  },
  "time": {
    "samples": {
      "AcquisitionNumber": [1, 2, 3, 4, 5, 6, 7, 8, 9, 10, 11, 12, 13, 14, 15, 16, 17, 18, 19, 20, 21, 22, 23, 24, 25, 26, 27, 28, 29, 30, 31, 32, 33, 34, 35, 36, 37, 38, 39, 40, 41, 42, 43, 44, 45, 46, 47, 48, 49, 50, 51, 52, 53, 54, 55, 56, 57, 58, 59, 60, 61, 62, 63, 64, 65, 66, 67, 68, 69, 70, 71, 72, 73, 74, 75, 76, 77, 78, 79, 80, 81, 82, 83, 84, 85, 86, 87, 88, 89, 90, 91, 92, 93, 94, 95, 96, 97, 98, 99, 100, 101, 102, 103, 104, 105, 106, 107, 108, 109, 110, 111, 112, 113, 114, 115, 116, 117, 118, 119, 120, 121, 122, 123, 124, 125, 126, 127, 128, 129, 130, 131, 132, 133, 134, 135, 136, 137, 138, 139, 140, 141, 142, 143, 144, 145, 146, 147, 148, 149, 150, 151, 152, 153, 154, 155, 156, 157, 158, 159, 160, 161, 162, 163, 164, 165, 166, 167, 168, 169, 170, 171, 172, 173, 174, 175, 176, 177, 178, 179, 180, 181, 182, 183, 184, 185, 186, 187, 188, 189, 190, 191, 192, 193, 194, 195, 196, 197, 198, 199, 200, 201, 202, 203, 204, 205, 206, 207, 208, 209, 210, 211, 212, 213, 214, 215, 216, 217, 218, 219, 220, 221, 222, 223, 224, 225, 226, 227, 228, 229, 230, 231, 232, 233, 234, 235, 236, 237, 238, 239, 240, 241, 242, 243, 244, 245, 246, 247, 248, 249, 250, 251, 252, 253, 254, 255, 256, 257, 258, 259, 260, 261, 262, 263, 264, 265, 266, 267, 268, 269, 270, 271, 272, 273, 274, 275, 276, 277, 278, 279, 280, 281, 282, 283, 284, 285, 286, 287, 288, 289],
      "AcquisitionTime": ["174700.835000", "174702.835000", "174704.835000", "174706.835000", "174708.835000", "174710.835000", "174712.835000", "174714.835000", "174716.835000", "174718.835000", "174720.835000", "174722.835000", "174724.835000", "174726.835000", "174728.835000", "174730.835000", "174732.835000", "174734.835000", "174736.835000", "174738.835000", "174740.835000", "174742.835000", "174744.835000", "174746.835000", "174748.835000", "174750.835000", "174752.835000", "174754.835000", "174756.835000", "174758.835000", "174800.835000", "174802.835000", "174804.835000", "174806.835000", "174808.835000", "174810.835000", "174812.835000", "174814.835000", "174816.835000", "174818.835000", "174820.835000", "174822.835000", "174824.835000", "174826.835000", "174828.835000", "174830.835000", "174832.835000", "174834.835000", "174836.835000", "174838.835000", "174840.835000", "174842.835000", "174844.835000", "174846.835000", "174848.835000", "174850.835000", "174852.835000", "174854.835000", "174856.835000", "174858.835000", "174900.835000", "174902.835000", "174904.835000", "174906.835000", "174908.835000", "174910.835000", "174912.835000", "174914.835000", "174916.835000", "174918.835000", "174920.835000", "174922.835000", "174924.835000", "174926.835000", "174928.835000", "174930.835000", "174932.835000", "174934.835000", "174936.835000", "174938.835000", "174940.835000", "174942.835000", "174944.835000", "174946.835000", "174948.835000", "174950.835000", "174952.835000", "174954.835000", "174956.835000", "174958.835000", "175000.835000", "175002.835000", "175004.835000", "175006.835000", "175008.835000", "175010.835000", "175012.835000", "175014.835000", "175016.835000", "175018.835000", "175020.835000", "175022.835000", "175024.835000", "175026.835000", "175028.835000", "175030.835000", "175032.835000", "175034.835000", "175036.835000", "175038.835000", "175040.835000", "175042.835000", "175044.835000", "175046.835000", "175048.835000", "175050.835000", "175052.835000", "175054.835000", "175056.835000", "175058.835000", "175100.835000", "175102.835000", "175104.835000", "175106.835000", "175108.835000", "175110.835000", "175112.835000", "175114.835000", "175116.835000", "175118.835000", "175120.835000", "175122.835000", "175124.835000", "175126.835000", "175128.835000", "175130.835000", "175132.835000", "175134.835000", "175136.835000", "175138.835000", "175140.835000", "175142.835000", "175144.835000", "175146.835000", "175148.835000", "175150.835000", "175152.835000", "175154.835000", "175156.835000", "175158.835000", "175200.835000", "175202.835000", "175204.835000", "175206.835000", "175208.835000", "175210.835000", "175212.835000", "175214.835000", "175216.835000", "175218.835000", "175220.835000", "175222.835000", "175224.835000", "175226.835000", "175228.835000", "175230.835000", "175232.835000", "175234.835000", "175236.835000", "175238.835000", "175240.835000", "175242.835000", "175244.835000", "175246.835000", "175248.835000", "175250.835000", "175252.835000", "175254.835000", "175256.835000", "175258.835000", "175300.835000", "175302.835000", "175304.835000", "175306.835000", "175308.835000", "175310.835000", "175312.835000", "175314.837500", "175316.837500", "175318.837500", "175320.837500", "175322.837500", "175324.837500", "175326.837500", "175328.837500", "175330.837500", "175332.837500", "175334.837500", "175336.837500", "175338.837500", "175340.837500", "175342.837500", "175344.837500", "175346.837500", "175348.837500", "175350.837500", "175352.837500", "175354.837500", "175356.837500", "175358.837500", "175400.837500", "175402.837500", "175404.837500", "175406.837500", "175408.837500", "175410.837500", "175412.837500", "175414.837500", "175416.837500", "175418.837500", "175420.837500", "175422.837500", "175424.837500", "175426.837500", "175428.837500", "175430.837500", "175432.837500", "175434.837500", "175436.837500", "175438.837500", "175440.837500", "175442.837500", "175444.837500", "175446.837500", "175448.837500", "175450.837500", "175452.837500", "175454.837500", "175456.837500", "175458.837500", "175500.837500", "175502.837500", "175504.837500", "175506.837500", "175508.837500", "175510.837500", "175512.837500", "175514.837500", "175516.837500", "175518.837500", "175520.837500", "175522.837500", "175524.837500", "175526.837500", "175528.837500", "175530.837500", "175532.837500", "175534.837500", "175536.837500", "175538.837500", "175540.837500", "175542.837500", "175544.837500", "175546.837500", "175548.837500", "175550.837500", "175552.837500", "175554.837500", "175556.837500", "175558.837500", "175600.837500", "175602.837500", "175604.837500", "175606.837500", "175608.837500", "175610.837500", "175612.837500", "175614.837500", "175616.837500", "175618.837500", "175620.837500", "175622.837500", "175624.837500", "175626.837500", "175628.837500", "175630.837500", "175632.837500", "175634.837500", "175636.837500"],
      "ContentTime": ["174715.193000", "174716.186000", "174717.186000", "174717.190000", "174718.187000", "174719.186000", "174720.186000", "174720.191000", "174721.186000", "174722.185000", "174723.686000", "174725.686000", "174727.686000", "174729.686000", "174731.687000", "174733.687000", "174735.688000", "174737.687000", "174739.686000", "174741.685000", "174743.686000", "174745.686000", "174747.687000", "174749.687000", "174751.687000", "174753.687000", "174755.687000", "174757.686000", "174759.686000", "174801.687000", "174803.686000", "174805.688000", "174807.687000", "174809.687000", "174811.687000", "174813.686000", "174815.686000", "174817.686000", "174819.686000", "174821.686000", "174823.687000", "174825.687000", "174827.687000", "174829.687000", "174831.686000", "174833.687000", "174835.686000", "174837.686000", "174839.686000", "174841.687000", "174843.687000", "174845.687000", "174847.687000", "174849.686000", "174851.686000", "174853.687000", "174855.686000", "174857.688000", "174859.687000", "174901.687000", "174903.687000", "174905.686000", "174907.686000", "174909.686000", "174911.686000", "174913.685000", "174915.692000", "174917.687000", "174919.687000", "174921.686000", "174923.686000", "174925.686000", "174927.686000", "174929.687000", "174931.685000", "174933.687000", "174935.687000", "174937.687000", "174939.687000", "174941.685000", "174943.687000", "174945.686000", "174947.686000", "174949.686000", "174951.687000", "174953.687000", "174955.687000", "174957.687000", "174959.686000", "175001.686000", "175003.687000", "175005.686000", "175007.687000", "175009.687000", "175011.688000", "175013.687000", "175015.687000", "175017.686000", "175019.686000", "175021.686000", "175023.686000", "175025.687000", "175027.688000", "175029.688000", "175031.687000", "175033.686000", "175035.686000", "175037.686000", "175039.687000", "175041.686000", "175043.686000", "175045.687000", "175047.687000", "175049.687000", "175051.687000", "175053.686000", "175055.686000", "175057.685000", "175059.686000", "175101.687000", "175103.688000", "175105.688000", "175107.687000", "175109.686000", "175111.686000", "175113.685000", "175115.686000", "175117.687000", "175119.687000", "175121.688000", "175123.688000", "175125.687000", "175127.686000", "175129.686000", "175131.687000", "175133.687000", "175135.687000", "175137.687000", "175139.687000", "175141.686000", "175143.686000", "175145.686000", "175147.686000", "175149.686000", "175151.686000", "175153.687000", "175155.688000", "175157.687000", "175159.687000", "175201.686000", "175203.686000", "175205.685000", "175207.686000", "175209.686000", "175211.687000", "175213.687000", "175215.687000", "175217.686000", "175219.686000", "175221.686000", "175223.686000", "175225.687000", "175227.687000", "175229.688000", "175231.687000", "175233.687000", "175235.687000", "175237.686000", "175239.687000", "175241.687000", "175243.686000", "175245.687000", "175247.688000", "175249.687000", "175251.687000", "175253.687000", "175255.685000", "175257.686000", "175259.686000", "175301.686000", "175303.688000", "175305.687000", "175307.687000", "175309.687000", "175311.687000", "175313.686000", "175315.686000", "175317.686000", "175319.686000", "175321.688000", "175323.686000", "175325.687000", "175327.687000", "175329.687000", "175331.685000", "175333.687000", "175335.686000", "175337.687000", "175339.688000", "175341.688000", "175343.688000", "175345.688000", "175347.686000", "175349.687000", "175351.686000", "175353.687000", "175355.688000", "175357.688000", "175359.687000", "175401.688000", "175403.686000", "175405.687000", "175407.686000", "175409.686000", "175411.685000", "175413.688000", "175415.687000", "175417.687000", "175419.687000", "175421.686000", "175423.687000", "175425.686000", "175427.687000", "175429.686000", "175431.688000", "175433.687000", "175435.687000", "175437.688000", "175439.686000", "175441.686000", "175443.686000", "175445.698000", "175447.688000", "175449.687000", "175451.687000", "175453.685000", "175455.686000", "175457.686000", "175459.686000", "175501.686000", "175503.687000", "175505.687000", "175507.687000", "175509.688000", "175511.687000", "175513.686000", "175515.685000", "175517.687000", "175519.686000", "175521.686000", "175523.687000", "175525.687000", "175527.689000", "175529.688000", "175531.687000", "175533.687000", "175535.686000", "175537.687000", "175539.688000", "175541.688000", "175543.687000", "175545.707000", "175547.690000", "175549.686000", "175551.687000", "175553.686000", "175555.686000", "175557.688000", "175559.687000", "175601.687000", "175603.687000", "175605.686000", "175607.685000", "175609.687000", "175611.686000", "175613.686000", "175615.687000", "175617.688000", "175619.687000", "175621.687000", "175623.684000", "175625.686000", "175627.687000", "175629.686000", "175631.686000", "175633.687000", "175635.688000", "175637.688000", "175639.372000"],
      "InstanceCreationTime": ["174715.193000", "174716.186000", "174717.186000", "174717.190000", "174718.187000", "174719.186000", "174720.186000", "174720.191000", "174721.186000", "174722.185000", "174723.686000", "174725.686000", "174727.686000", "174729.686000", "174731.687000", "174733.687000", "174735.688000", "174737.687000", "174739.686000", "174741.685000", "174743.686000", "174745.686000", "174747.687000", "174749.687000", "174751.687000", "174753.687000", "174755.687000", "174757.686000", "174759.686000", "174801.687000", "174803.686000", "174805.688000", "174807.687000", "174809.687000", "174811.687000", "174813.686000", "174815.686000", "174817.686000", "174819.686000", "174821.686000", "174823.687000", "174825.687000", "174827.687000", "174829.687000", "174831.686000", "174833.687000", "174835.686000", "174837.686000", "174839.686000", "174841.687000", "174843.687000", "174845.687000", "174847.687000", "174849.686000", "174851.686000", "174853.687000", "174855.686000", "174857.688000", "174859.687000", "174901.687000", "174903.687000", "174905.686000", "174907.686000", "174909.686000", "174911.686000", "174913.685000", "174915.692000", "174917.687000", "174919.687000", "174921.686000", "174923.686000", "174925.686000", "174927.686000", "174929.687000", "174931.685000", "174933.687000", "174935.687000", "174937.687000", "174939.687000", "174941.685000", "174943.687000", "174945.686000", "174947.686000", "174949.686000", "174951.687000", "174953.687000", "174955.687000", "174957.687000", "174959.686000", "175001.686000", "175003.687000", "175005.686000", "175007.687000", "175009.687000", "175011.688000", "175013.687000", "175015.687000", "175017.686000", "175019.686000", "175021.686000", "175023.686000", "175025.687000", "175027.688000", "175029.688000", "175031.687000", "175033.686000", "175035.686000", "175037.686000", "175039.687000", "175041.686000", "175043.686000", "175045.687000", "175047.687000", "175049.687000", "175051.687000", "175053.686000", "175055.686000", "175057.685000", "175059.686000", "175101.687000", "175103.688000", "175105.688000", "175107.687000", "175109.686000", "175111.686000", "175113.685000", "175115.686000", "175117.687000", "175119.687000", "175121.688000", "175123.688000", "175125.687000", "175127.686000", "175129.686000", "175131.687000", "175133.687000", "175135.687000", "175137.687000", "175139.687000", "175141.686000", "175143.686000", "175145.686000", "175147.686000", "175149.686000", "175151.686000", "175153.687000", "175155.688000", "175157.687000", "175159.687000", "175201.686000", "175203.686000", "175205.685000", "175207.686000", "175209.686000", "175211.687000", "175213.687000", "175215.687000", "175217.686000", "175219.686000", "175221.686000", "175223.686000", "175225.687000", "175227.687000", "175229.688000", "175231.687000", "175233.687000", "175235.687000", "175237.686000", "175239.687000", "175241.687000", "175243.686000", "175245.687000", "175247.688000", "175249.687000", "175251.687000", "175253.687000", "175255.685000", "175257.686000", "175259.686000", "175301.686000", "175303.688000", "175305.687000", "175307.687000", "175309.687000", "175311.687000", "175313.686000", "175315.686000", "175317.686000", "175319.686000", "175321.688000", "175323.686000", "175325.687000", "175327.687000", "175329.687000", "175331.685000", "175333.687000", "175335.686000", "175337.687000", "175339.688000", "175341.688000", "175343.688000", "175345.688000", "175347.686000", "175349.687000", "175351.686000", "175353.687000", "175355.688000", "175357.688000", "175359.687000", "175401.688000", "175403.686000", "175405.687000", "175407.686000", "175409.686000", "175411.685000", "175413.688000", "175415.687000", "175417.687000", "175419.687000", "175421.686000", "175423.687000", "175425.686000", "175427.687000", "175429.686000", "175431.688000", "175433.687000", "175435.687000", "175437.688000", "175439.686000", "175441.686000", "175443.686000", "175445.698000", "175447.688000", "175449.687000", "175451.687000", "175453.685000", "175455.686000", "175457.686000", "175459.686000", "175501.686000", "175503.687000", "175505.687000", "175507.687000", "175509.688000", "175511.687000", "175513.686000", "175515.685000", "175517.687000", "175519.686000", "175521.686000", "175523.687000", "175525.687000", "175527.689000", "175529.688000", "175531.687000", "175533.687000", "175535.686000", "175537.687000", "175539.688000", "175541.688000", "175543.687000", "175545.707000", "175547.690000", "175549.686000", "175551.687000", "175553.686000", "175555.686000", "175557.688000", "175559.687000", "175601.687000", "175603.687000", "175605.686000", "175607.685000", "175609.687000", "175611.686000", "175613.686000", "175615.687000", "175617.688000", "175619.687000", "175621.687000", "175623.684000", "175625.686000", "175627.687000", "175629.686000", "175631.686000", "175633.687000", "175635.688000", "175637.688000", "175639.372000"],
      "InstanceNumber": [1, 2, 3, 4, 5, 6, 7, 8, 9, 10, 11, 12, 13, 14, 15, 16, 17, 18, 19, 20, 21, 22, 23, 24, 25, 26, 27, 28, 29, 30, 31, 32, 33, 34, 35, 36, 37, 38, 39, 40, 41, 42, 43, 44, 45, 46, 47, 48, 49, 50, 51, 52, 53, 54, 55, 56, 57, 58, 59, 60, 61, 62, 63, 64, 65, 66, 67, 68, 69, 70, 71, 72, 73, 74, 75, 76, 77, 78, 79, 80, 81, 82, 83, 84, 85, 86, 87, 88, 89, 90, 91, 92, 93, 94, 95, 96, 97, 98, 99, 100, 101, 102, 103, 104, 105, 106, 107, 108, 109, 110, 111, 112, 113, 114, 115, 116, 117, 118, 119, 120, 121, 122, 123, 124, 125, 126, 127, 128, 129, 130, 131, 132, 133, 134, 135, 136, 137, 138, 139, 140, 141, 142, 143, 144, 145, 146, 147, 148, 149, 150, 151, 152, 153, 154, 155, 156, 157, 158, 159, 160, 161, 162, 163, 164, 165, 166, 167, 168, 169, 170, 171, 172, 173, 174, 175, 176, 177, 178, 179, 180, 181, 182, 183, 184, 185, 186, 187, 188, 189, 190, 191, 192, 193, 194, 195, 196, 197, 198, 199, 200, 201, 202, 203, 204, 205, 206, 207, 208, 209, 210, 211, 212, 213, 214, 215, 216, 217, 218, 219, 220, 221, 222, 223, 224, 225, 226, 227, 228, 229, 230, 231, 232, 233, 234, 235, 236, 237, 238, 239, 240, 241, 242, 243, 244, 245, 246, 247, 248, 249, 250, 251, 252, 253, 254, 255, 256, 257, 258, 259, 260, 261, 262, 263, 264, 265, 266, 267, 268, 269, 270, 271, 272, 273, 274, 275, 276, 277, 278, 279, 280, 281, 282, 283, 284, 285, 286, 287, 288, 289],
      "WindowCenter": [19145.0, 19097.0, 19079.0, 19063.0, 19060.0, 19065.0, 19092.0, 19091.0, 19090.0, 19047.0, 19009.0, 18972.0, 18988.0, 19000.0, 18994.0, 18997.0, 18997.0, 19020.0, 19056.0, 19018.0, 19008.0, 18994.0, 19014.0, 19020.0, 19055.0, 19067.0, 19026.0, 18997.0, 18990.0, 19026.0, 19092.0, 19058.0, 19025.0, 19024.0, 19011.0, 19021.0, 19042.0, 19009.0, 19005.0, 19005.0, 19020.0, 19075.0, 19055.0, 19070.0, 19044.0, 19017.0, 19005.0, 19002.0, 19045.0, 19087.0, 19097.0, 19050.0, 19064.0, 19047.0, 19043.0, 19076.0, 19091.0, 19097.0, 19081.0, 19051.0, 19056.0, 19030.0, 19013.0, 18986.0, 19008.0, 19033.0, 19058.0, 19040.0, 19008.0, 19019.0, 19057.0, 19069.0, 19053.0, 19030.0, 19010.0, 19008.0, 19039.0, 19080.0, 19070.0, 19025.0, 18995.0, 18993.0, 19016.0, 19044.0, 19063.0, 19046.0, 19036.0, 19033.0, 19042.0, 19010.0, 19004.0, 19039.0, 19093.0, 19100.0, 19093.0, 19077.0, 19048.0, 19051.0, 19058.0, 19107.0, 19082.0, 19059.0, 19052.0, 19072.0, 19052.0, 19018.0, 19042.0, 19049.0, 19098.0, 19101.0, 19059.0, 19023.0, 19016.0, 19060.0, 19089.0, 19074.0, 19088.0, 19060.0, 19029.0, 19030.0, 19053.0, 19060.0, 19059.0, 19063.0, 19026.0, 19039.0, 19087.0, 19101.0, 19105.0, 19040.0, 19078.0, 19099.0, 19069.0, 19028.0, 19029.0, 19032.0, 19044.0, 19076.0, 19084.0, 19060.0, 19024.0, 19045.0, 19066.0, 19097.0, 19122.0, 19078.0, 19035.0, 19037.0, 19034.0, 19035.0, 19062.0, 19061.0, 19078.0, 19044.0, 19025.0, 19021.0, 19035.0, 19084.0, 19052.0, 19045.0, 19024.0, 19039.0, 19072.0, 19064.0, 19056.0, 19057.0, 19043.0, 19035.0, 19041.0, 19035.0, 19009.0, 19012.0, 19036.0, 19057.0, 19048.0, 19047.0, 19044.0, 19034.0, 19035.0, 19071.0, 19080.0, 19065.0, 19064.0, 19053.0, 19057.0, 19083.0, 19101.0, 19071.0, 19052.0, 19028.0, 19003.0, 19007.0, 19036.0, 19045.0, 19045.0, 19008.0, 19022.0, 19047.0, 19041.0, 19025.0, 19032.0, 19018.0, 19056.0, 19078.0, 19092.0, 19073.0, 19063.0, 19043.0, 19068.0, 19055.0, 19054.0, 19042.0, 19079.0, 19096.0, 19090.0, 19054.0, 19036.0, 19056.0, 19077.0, 19083.0, 19070.0, 19061.0, 19092.0, 19095.0, 19047.0, 19011.0, 19029.0, 19071.0, 19107.0, 19049.0, 19044.0, 19022.0, 19011.0, 19021.0, 19064.0, 19090.0, 19073.0, 19073.0, 19077.0, 19051.0, 19068.0, 19074.0, 19043.0, 19060.0, 19053.0, 19017.0, 19009.0, 19049.0, 19071.0, 19086.0, 19087.0, 19071.0, 19044.0, 19085.0, 19090.0, 19065.0, 19016.0, 19035.0, 19023.0, 19041.0, 19062.0, 19084.0, 19081.0, 19045.0, 19061.0, 19047.0, 19037.0, 19046.0, 19071.0, 19095.0, 19105.0, 19135.0, 19126.0, 19108.0, 19105.0, 19080.0, 19108.0, 19115.0, 19092.0, 19077.0, 19060.0, 19072.0, 19080.0, 19075.0, 19073.0, 19034.0, 19016.0, 19011.0, 19014.0],
      "WindowWidth": [47939.0, 47795.0, 47782.0, 47770.0, 47802.0, 47819.0, 47885.0, 47860.0, 47788.0, 47687.0, 47601.0, 47463.0, 47568.0, 47573.0, 47580.0, 47546.0, 47618.0, 47717.0, 47718.0, 47622.0, 47591.0, 47583.0, 47642.0, 47717.0, 47800.0, 47808.0, 47650.0, 47605.0, 47648.0, 47758.0, 47907.0, 47777.0, 47659.0, 47648.0, 47640.0, 47719.0, 47755.0, 47639.0, 47589.0, 47613.0, 47719.0, 47801.0, 47824.0, 47739.0, 47721.0, 47632.0, 47613.0, 47659.0, 47781.0, 47833.0, 47819.0, 47762.0, 47747.0, 47726.0, 47712.0, 47774.0, 47850.0, 47863.0, 47839.0, 47796.0, 47776.0, 47676.0, 47607.0, 47576.0, 47662.0, 47785.0, 47812.0, 47754.0, 47673.0, 47717.0, 47825.0, 47844.0, 47773.0, 47664.0, 47617.0, 47711.0, 47802.0, 47875.0, 47844.0, 47683.0, 47604.0, 47606.0, 47702.0, 47782.0, 47771.0, 47697.0, 47645.0, 47655.0, 47708.0, 47626.0, 47599.0, 47709.0, 47851.0, 47890.0, 47870.0, 47777.0, 47700.0, 47691.0, 47745.0, 47871.0, 47828.0, 47755.0, 47812.0, 47798.0, 47690.0, 47657.0, 47636.0, 47701.0, 47797.0, 47763.0, 47697.0, 47648.0, 47606.0, 47687.0, 47790.0, 47767.0, 47753.0, 47745.0, 47675.0, 47689.0, 47717.0, 47733.0, 47696.0, 47617.0, 47591.0, 47660.0, 47823.0, 47880.0, 47787.0, 47689.0, 47794.0, 47841.0, 47690.0, 47580.0, 47560.0, 47596.0, 47732.0, 47800.0, 47793.0, 47684.0, 47672.0, 47710.0, 47807.0, 47903.0, 47879.0, 47720.0, 47618.0, 47632.0, 47655.0, 47668.0, 47711.0, 47745.0, 47744.0, 47684.0, 47590.0, 47601.0, 47741.0, 47799.0, 47681.0, 47662.0, 47625.0, 47695.0, 47802.0, 47773.0, 47755.0, 47730.0, 47708.0, 47681.0, 47662.0, 47586.0, 47556.0, 47584.0, 47705.0, 47720.0, 47665.0, 47655.0, 47629.0, 47645.0, 47681.0, 47776.0, 47842.0, 47690.0, 47654.0, 47694.0, 47792.0, 47844.0, 47913.0, 47796.0, 47657.0, 47640.0, 47576.0, 47582.0, 47661.0, 47655.0, 47595.0, 47558.0, 47625.0, 47726.0, 47661.0, 47602.0, 47575.0, 47636.0, 47778.0, 47851.0, 47848.0, 47741.0, 47666.0, 47700.0, 47774.0, 47729.0, 47705.0, 47641.0, 47773.0, 47876.0, 47796.0, 47702.0, 47633.0, 47676.0, 47748.0, 47786.0, 47763.0, 47757.0, 47721.0, 47712.0, 47629.0, 47582.0, 47618.0, 47800.0, 47881.0, 47688.0, 47696.0, 47655.0, 47615.0, 47624.0, 47727.0, 47710.0, 47707.0, 47647.0, 47651.0, 47656.0, 47659.0, 47626.0, 47594.0, 47652.0, 47656.0, 47572.0, 47534.0, 47633.0, 47740.0, 47797.0, 47774.0, 47763.0, 47685.0, 47810.0, 47717.0, 47616.0, 47583.0, 47574.0, 47614.0, 47602.0, 47605.0, 47585.0, 47688.0, 47697.0, 47707.0, 47628.0, 47598.0, 47641.0, 47752.0, 47838.0, 47890.0, 47900.0, 47812.0, 47847.0, 47821.0, 47819.0, 47823.0, 47839.0, 47751.0, 47730.0, 47720.0, 47754.0, 47746.0, 47741.0, 47642.0, 47581.0, 47534.0, 47533.0, 47526.0]
    },
    "slices": {}
  }
}