{
  "AcquisitionMatrixPE": 116,
  "AcquisitionNumber": 1,
  "AcquisitionTime": "18:10:23.887500",
  "BandwidthPerPixelPhaseEncode": 18.539,
  "BaseResolution": 116,
  "BodyPartExamined": "HEAD",
  "ConsistencyInfo": "N4_VD13D_LATEST_20130810",
  "ConversionSoftware": "dcm2niix",
  "ConversionSoftwareVersion": "v1.0.20190410  (JP2:OpenJPEG) (JP-LS:CharLS) GCC5.5.0",
  "DerivedVendorReportedEchoSpacing": 0.000930006,
  "DeviceSerialNumber": "66014",
  "DwellTime": 3e-06,
  "EchoTime": 0.03,
  "EchoTrainLength": 50,
  "EffectiveEchoSpacing": 0.000465003,
  "FlipAngle": 81,
  "ImageComments": "Unaliased_MB3_PE4",
  "ImageOrientationPatientDICOM": [0.999944, -0.0105498, 0.000108669, 0.0104717, 0.991183, -0.132089],
  "ImageType": [
    "ORIGINAL",
    "PRIMARY",
    "M",
    "MB",
    "ND",
    "MOSAIC"
],
  "ImagingFrequency": 123.261,
  "InPlanePhaseEncodingDirectionDICOM": "COL",
  "InstitutionAddress": "Yiheyuan_Road_5_Beijing_Haidian_CN_100871",
  "InstitutionName": "Peking_University",
  "InstitutionalDepartmentName": "Department",
  "MRAcquisitionType": "2D",
  "MagneticFieldStrength": 3,
  "Manufacturer": "Siemens",
  "ManufacturersModelName": "Prisma",
  "Modality": "MR",
  "MultibandAccelerationFactor": 3,
  "ParallelReductionFactorInPlane": 2,
  "PartialFourier": 0.875,
  "PatientPosition": "HFS",
  "PercentPhaseFOV": 100,
  "PhaseEncodingDirection": "j-",
  "PhaseEncodingSteps": 101,
  "PhaseResolution": 1,
  "PixelBandwidth": 1435,
  "ProcedureStepDescription": "Research_Projects_64CH",
  "ProtocolName": "mbep2d_bold_MB3_loca3",
  "PulseSequenceDetails": "%CustomerSeq%_cmrr_mbep2d_bold",
  "ReceiveCoilActiveElements": "HC1-7",
  "ReceiveCoilName": "HeadNeck_64",
  "ReconMatrixPE": 116,
  "RefLinesPE": 44,
  "RepetitionTime": 2,
  "SAR": 0.0539814,
  "ScanOptions": "PFP_FS",
  "ScanningSequence": "EP",
  "SequenceName": "epfid2d1_116",
  "SequenceVariant": "SK_SS",
  "SeriesDescription": "mbep2d_bold_MB3_loca3",
  "SeriesNumber": 11,
  "ShimSetting": [-3443, -2107, -1981, 355, 5, -259, -18, 12],
  "SliceThickness": 1.9,
  "SliceTiming": [0, 0.9075, 1.815, 0.7425, 1.65, 0.5775, 1.485, 0.4125, 1.32, 0.2475, 1.155, 0.0825, 0.99, 1.8975, 0.825, 1.7325, 0.66, 1.5675, 0.495, 1.4025, 0.33, 1.2375, 0.165, 1.0725, 0, 0.9075, 1.815, 0.7425, 1.65, 0.5775, 1.485, 0.4125, 1.32, 0.2475, 1.155, 0.0825, 0.99, 1.8975, 0.825, 1.7325, 0.66, 1.5675, 0.495, 1.4025, 0.33, 1.2375, 0.165, 1.0725, 0, 0.9075, 1.815, 0.7425, 1.65, 0.5775, 1.485, 0.4125, 1.32, 0.2475, 1.155, 0.0825, 0.99, 1.8975, 0.825, 1.7325, 0.66, 1.5675, 0.495, 1.4025, 0.33, 1.2375, 0.165, 1.0725],
  "SoftwareVersions": "syngo_MR_D13D",
  "SpacingBetweenSlices": 1.9,
  "StationName": "AWP66014",
  "TaskName": "localizer",
  "TotalReadoutTime": 0.0534753,
  "TxRefAmp": 239.867,
  "WipMemBlock": "2070fc9e-8795-48d6-9ffd-d76092cc721c||Sequence: vd13d/master r/0735857; Nov 19 2014 09:21:40 by eja",
  "dcmmeta_affine": [
    [-1.8964462280273438, 0.019860168918967247, -0.00244301650673151, 108.55986785888672],
    [0.020008262246847153, 1.8798290491104126, -0.2509564161300659, -94.84635162353516],
    [0.00020609657804016024, 0.2505127489566803, 1.8833520412445068, -77.80963897705078],
    [0.0, 0.0, 0.0, 1.0]
],
  "dcmmeta_reorient_transform": [
    [0.0, -1.0, 0.0, 115.0],
    [1.0, 0.0, 0.0, 0.0],
    [0.0, 0.0, 1.0, 0.0],
    [0.0, 0.0, 0.0, 1.0]
],
  "dcmmeta_shape": [116, 116, 72, 164],
  "dcmmeta_slice_dim": 2,
  "dcmmeta_version": 0.6,
  "global": {
    "const": {
      "AcquisitionMatrix": [116, 0, 0, 116],
      "AngioFlag": "N",
      "BitsAllocated": 16,
      "BitsStored": 16,
      "BodyPartExamined": "HEAD",
      "Columns": 1044,
      "EchoNumbers": 1,
      "EchoTime": 30.0,
      "EchoTrainLength": 50,
      "FlipAngle": 81.0,
      "HighBit": 15,
      "ImageOrientationPatient": [0.99994434329581, -0.0105498105068, 0.00010866910428, 0.01047172545541, 0.99118260790067, -0.1320885337991],
      "ImagePositionPatient": [-1000.0099262793, -984.2908584641, 67.141607011044],
      "ImageType": [
        "ORIGINAL",
        "PRIMARY",
        "M",
        "MB",
        "ND",
        "MOSAIC"
],
      "ImagedNucleus": "1H",
      "ImagingFrequency": 123.260605,
      "InPlanePhaseEncodingDirection": "COL",
      "LargestImagePixelValue": 65535,
      "MRAcquisitionType": "2D",
      "MagneticFieldStrength": 3.0,
      "Manufacturer": "SIEMENS",
      "ManufacturerModelName": "Prisma",
      "Modality": "MR",
      "NumberOfAverages": 1.0,
      "NumberOfPhaseEncodingSteps": 101,
      "PercentPhaseFieldOfView": 100.0,
      "PercentSampling": 100.0,
      "PerformedProcedureStepStartTime": "170952.860000",
      "PhotometricInterpretation": "MONOCHROME2",
      "PixelBandwidth": 1435.0,
      "PixelRepresentation": 0,
      "PixelSpacing": [1.8965517282486, 1.8965517282486],
      "ProtocolName": "mbep2d_bold_MB3_loca3",
      "RepetitionTime": 2000.0,
      "Rows": 1044,
      "SAR": 0.05398141034607,
      "SamplesPerPixel": 1,
      "ScanOptions": [
        "PFP",
        "FS"
],
      "ScanningSequence": "EP",
      "SequenceName": "epfid2d1_116",
      "SequenceVariant": [
        "SK",
        "SS"
],
      "SeriesDescription": "mbep2d_bold_MB3_loca3",
      "SeriesNumber": 11,
      "SeriesTime": "181038.772000",
      "SliceLocation": -64.739924461959,
      "SliceThickness": 1.8999999761581,
      "SmallestImagePixelValue": 0,
      "SoftwareVersions": "syngo MR D13D",
      "SpacingBetweenSlices": 1.9000000494591,
      "SpecificCharacterSet": "ISO_IR 100",
      "StudyID": "1",
      "StudyTime": "170952.781000",
      "TimeOfLastCalibration": ["123723.000000", "123723.000000"],
      "TransmitCoilName": "Body",
      "VariableFlipAngleFlag": "N",
      "WindowCenterWidthExplanation": "Algo1",
      "dBdt": 0.0},
    "slices": {}
  },
  "time": {
    "samples": {
      "AcquisitionNumber": [1, 2, 3, 4, 5, 6, 7, 8, 9, 10, 11, 12, 13, 14, 15, 16, 17, 18, 19, 20, 21, 22, 23, 24, 25, 26, 27, 28, 29, 30, 31, 32, 33, 34, 35, 36, 37, 38, 39, 40, 41, 42, 43, 44, 45, 46, 47, 48, 49, 50, 51, 52, 53, 54, 55, 56, 57, 58, 59, 60, 61, 62, 63, 64, 65, 66, 67, 68, 69, 70, 71, 72, 73, 74, 75, 76, 77, 78, 79, 80, 81, 82, 83, 84, 85, 86, 87, 88, 89, 90, 91, 92, 93, 94, 95, 96, 97, 98, 99, 100, 101, 102, 103, 104, 105, 106, 107, 108, 109, 110, 111, 112, 113, 114, 115, 116, 117, 118, 119, 120, 121, 122, 123, 124, 125, 126, 127, 128, 129, 130, 131, 132, 133, 134, 135, 136, 137, 138, 139, 140, 141, 142, 143, 144, 145, 146, 147, 148, 149, 150, 151, 152, 153, 154, 155, 156, 157, 158, 159, 160, 161, 162, 163, 164],
      "AcquisitionTime": ["181023.887500", "181025.887500", "181027.887500", "181029.887500", "181031.887500", "181033.887500", "181035.887500", "181037.887500", "181039.887500", "181041.887500", "181043.887500", "181045.887500", "181047.887500", "181049.887500", "181051.887500", "181053.887500", "181055.887500", "181057.887500", "181059.887500", "181101.887500", "181103.887500", "181105.887500", "181107.887500", "181109.887500", "181111.887500", "181113.887500", "181115.887500", "181117.887500", "181119.887500", "181121.887500", "181123.887500", "181125.887500", "181127.887500", "181129.887500", "181131.887500", "181133.887500", "181135.887500", "181137.887500", "181139.887500", "181141.887500", "181143.887500", "181145.887500", "181147.887500", "181149.887500", "181151.887500", "181153.887500", "181155.887500", "181157.887500", "181159.887500", "181201.887500", "181203.887500", "181205.887500", "181207.887500", "181209.887500", "181211.887500", "181213.887500", "181215.887500", "181217.887500", "181219.887500", "181221.887500", "181223.887500", "181225.887500", "181227.887500", "181229.887500", "181231.887500", "181233.887500", "181235.887500", "181237.887500", "181239.887500", "181241.887500", "181243.887500", "181245.887500", "181247.887500", "181249.887500", "181251.887500", "181253.887500", "181255.887500", "181257.887500", "181259.887500", "181301.887500", "181303.887500", "181305.887500", "181307.887500", "181309.887500", "181311.887500", "181313.887500", "181315.887500", "181317.887500", "181319.887500", "181321.887500", "181323.887500", "181325.887500", "181327.887500", "181329.887500", "181331.887500", "181333.887500", "181335.887500", "181337.887500", "181339.887500", "181341.887500", "181343.887500", "181345.887500", "181347.887500", "181349.887500", "181351.887500", "181353.887500", "181355.887500", "181357.887500", "181359.887500", "181401.887500", "181403.887500", "181405.887500", "181407.887500", "181409.887500", "181411.887500", "181413.887500", "181415.887500", "181417.887500", "181419.887500", "181421.887500", "181423.887500", "181425.887500", "181427.887500", "181429.887500", "181431.887500", "181433.887500", "181435.887500", "181437.887500", "181439.887500", "181441.887500", "181443.887500", "181445.887500", "181447.887500", "181449.887500", "181451.887500", "181453.887500", "181455.887500", "181457.887500", "181459.887500", "181501.887500", "181503.887500", "181505.887500", "181507.887500", "181509.887500", "181511.887500", "181513.887500", "181515.887500", "181517.887500", "181519.887500", "181521.887500", "181523.887500", "181525.887500", "181527.887500", "181529.887500", "181531.887500", "181533.887500", "181535.887500", "181537.887500", "181539.887500", "181541.887500", "181543.887500", "181545.887500", "181547.887500", "181549.887500"],
      "ContentTime": ["181038.777000", "181039.770000", "181039.774000", "181040.771000", "181041.770000", "181041.775000", "181042.770000", "181043.771000", "181044.770000", "181045.770000", "181046.768000", "181048.270000", "181050.271000", "181052.271000", "181054.271000", "181056.270000", "181058.271000", "181100.271000", "181102.271000", "181104.270000", "181106.269000", "181108.270000", "181110.271000", "181112.271000", "181114.271000", "181116.271000", "181118.271000", "181120.271000", "181122.270000", "181124.271000", "181126.271000", "181128.271000", "181130.271000", "181132.271000", "181134.271000", "181136.271000", "181138.271000", "181140.270000", "181142.271000", "181144.271000", "181146.271000", "181148.271000", "181150.271000", "181152.271000", "181154.271000", "181156.271000", "181158.270000", "181200.271000", "181202.271000", "181204.269000", "181206.271000", "181208.271000", "181210.271000", "181212.271000", "181214.268000", "181216.271000", "181218.271000", "181220.271000", "181222.271000", "181224.271000", "181226.269000", "181228.269000", "181230.271000", "181232.269000", "181234.271000", "181236.271000", "181238.284000", "181240.271000", "181242.272000", "181244.271000", "181246.271000", "181248.271000", "181250.270000", "181252.269000", "181254.271000", "181256.271000", "181258.271000", "181300.271000", "181302.271000", "181304.271000", "181306.271000", "181308.269000", "181310.271000", "181312.271000", "181314.271000", "181316.271000", "181318.271000", "181320.271000", "181322.269000", "181324.270000", "181326.271000", "181328.271000", "181330.271000", "181332.271000", "181334.270000", "181336.271000", "181338.271000", "181340.271000", "181342.270000", "181344.271000", "181346.269000", "181348.271000", "181350.271000", "181352.271000", "181354.271000", "181356.271000", "181358.271000", "181400.270000", "181402.271000", "181404.271000", "181406.271000", "181408.271000", "181410.271000", "181412.272000", "181414.271000", "181416.271000", "181418.270000", "181420.271000", "181422.271000", "181424.271000", "181426.271000", "181428.271000", "181430.271000", "181432.271000", "181434.271000", "181436.271000", "181438.271000", "181440.271000", "181442.271000", "181444.271000", "181446.271000", "181448.271000", "181450.271000", "181452.270000", "181454.271000", "181456.271000", "181458.271000", "181500.271000", "181502.271000", "181504.271000", "181506.271000", "181508.271000", "181510.270000", "181512.271000", "181514.271000", "181516.270000", "181518.271000", "181520.272000", "181522.271000", "181524.271000", "181526.272000", "181528.270000", "181530.271000", "181532.271000", "181534.271000", "181536.271000", "181538.271000", "181540.271000", "181542.271000", "181544.270000", "181546.270000", "181548.271000", "181550.271000", "181552.038000"],
      "InstanceCreationTime": ["181038.777000", "181039.770000", "181039.774000", "181040.771000", "181041.770000", "181041.775000", "181042.770000", "181043.771000", "181044.770000", "181045.770000", "181046.768000", "181048.270000", "181050.271000", "181052.271000", "181054.271000", "181056.270000", "181058.271000", "181100.271000", "181102.271000", "181104.270000", "181106.269000", "181108.270000", "181110.271000", "181112.271000", "181114.271000", "181116.271000", "181118.271000", "181120.271000", "181122.270000", "181124.271000", "181126.271000", "181128.271000", "181130.271000", "181132.271000", "181134.271000", "181136.271000", "181138.271000", "181140.270000", "181142.271000", "181144.271000", "181146.271000", "181148.271000", "181150.271000", "181152.271000", "181154.271000", "181156.271000", "181158.270000", "181200.271000", "181202.271000", "181204.269000", "181206.271000", "181208.271000", "181210.271000", "181212.271000", "181214.268000", "181216.271000", "181218.271000", "181220.271000", "181222.271000", "181224.271000", "181226.269000", "181228.269000", "181230.271000", "181232.269000", "181234.271000", "181236.271000", "181238.284000", "181240.271000", "181242.272000", "181244.271000", "181246.271000", "181248.271000", "181250.270000", "181252.269000", "181254.271000", "181256.271000", "181258.271000", "181300.271000", "181302.271000", "181304.271000", "181306.271000", "181308.269000", "181310.271000", "181312.271000", "181314.271000", "181316.271000", "181318.271000", "181320.271000", "181322.269000", "181324.270000", "181326.271000", "181328.271000", "181330.271000", "181332.271000", "181334.270000", "181336.271000", "181338.271000", "181340.271000", "181342.270000", "181344.271000", "181346.269000", "181348.271000", "181350.271000", "181352.271000", "181354.271000", "181356.271000", "181358.271000", "181400.270000", "181402.271000", "181404.271000", "181406.271000", "181408.271000", "181410.271000", "181412.272000", "181414.271000", "181416.271000", "181418.270000", "181420.271000", "181422.271000", "181424.271000", "181426.271000", "181428.271000", "181430.271000", "181432.271000", "181434.271000", "181436.271000", "181438.271000", "181440.271000", "181442.271000", "181444.271000", "181446.271000", "181448.271000", "181450.271000", "181452.270000", "181454.271000", "181456.271000", "181458.271000", "181500.271000", "181502.271000", "181504.271000", "181506.271000", "181508.271000", "181510.270000", "181512.271000", "181514.271000", "181516.270000", "181518.271000", "181520.272000", "181522.271000", "181524.271000", "181526.272000", "181528.270000", "181530.271000", "181532.271000", "181534.271000", "181536.271000", "181538.271000", "181540.271000", "181542.271000", "181544.270000", "181546.270000", "181548.271000", "181550.271000", "181552.038000"],
      "InstanceNumber": [1, 2, 3, 4, 5, 6, 7, 8, 9, 10, 11, 12, 13, 14, 15, 16, 17, 18, 19, 20, 21, 22, 23, 24, 25, 26, 27, 28, 29, 30, 31, 32, 33, 34, 35, 36, 37, 38, 39, 40, 41, 42, 43, 44, 45, 46, 47, 48, 49, 50, 51, 52, 53, 54, 55, 56, 57, 58, 59, 60, 61, 62, 63, 64, 65, 66, 67, 68, 69, 70, 71, 72, 73, 74, 75, 76, 77, 78, 79, 80, 81, 82, 83, 84, 85, 86, 87, 88, 89, 90, 91, 92, 93, 94, 95, 96, 97, 98, 99, 100, 101, 102, 103, 104, 105, 106, 107, 108, 109, 110, 111, 112, 113, 114, 115, 116, 117, 118, 119, 120, 121, 122, 123, 124, 125, 126, 127, 128, 129, 130, 131, 132, 133, 134, 135, 136, 137, 138, 139, 140, 141, 142, 143, 144, 145, 146, 147, 148, 149, 150, 151, 152, 153, 154, 155, 156, 157, 158, 159, 160, 161, 162, 163, 164],
      "WindowCenter": [19186.0, 19136.0, 19116.0, 19099.0, 19136.0, 19125.0, 19124.0, 19113.0, 19079.0, 19086.0, 19116.0, 19120.0, 19089.0, 19080.0, 19075.0, 19097.0, 19103.0, 19077.0, 19059.0, 19047.0, 19063.0, 19061.0, 19069.0, 19115.0, 19124.0, 19110.0, 19085.0, 19087.0, 19107.0, 19105.0, 19114.0, 19074.0, 19073.0, 19085.0, 19110.0, 19112.0, 19104.0, 19083.0, 19071.0, 19098.0, 19122.0, 19112.0, 19113.0, 19075.0, 19062.0, 19046.0, 19072.0, 19106.0, 19142.0, 19106.0, 19076.0, 19067.0, 19087.0, 19106.0, 19121.0, 19119.0, 19108.0, 19117.0, 19119.0, 19117.0, 19123.0, 19090.0, 19098.0, 19165.0, 19114.0, 19091.0, 19075.0, 19080.0, 19079.0, 19066.0, 19073.0, 19071.0, 19071.0, 19080.0, 19068.0, 19072.0, 19110.0, 19084.0, 19116.0, 19105.0, 19109.0, 19134.0, 19129.0, 19089.0, 19085.0, 19119.0, 19150.0, 19146.0, 19171.0, 19140.0, 19117.0, 19087.0, 19076.0, 19081.0, 19100.0, 19112.0, 19118.0, 19111.0, 19123.0, 19162.0, 19185.0, 19147.0, 19099.0, 19095.0, 19103.0, 19118.0, 19149.0, 19156.0, 19134.0, 19142.0, 19154.0, 19145.0, 19105.0, 19065.0, 19057.0, 19106.0, 19119.0, 19110.0, 19081.0, 19065.0, 19072.0, 19072.0, 19078.0, 19098.0, 19092.0, 19088.0, 19079.0, 19092.0, 19086.0, 19079.0, 19091.0, 19073.0, 19103.0, 19096.0, 19102.0, 19114.0, 19163.0, 19167.0, 19139.0, 19094.0, 19104.0, 19117.0, 19105.0, 19090.0, 19089.0, 19138.0, 19123.0, 19146.0, 19154.0, 19137.0, 19103.0, 19100.0, 19115.0, 19131.0, 19163.0, 19124.0, 19108.0, 19100.0, 19109.0, 19125.0, 19111.0, 19074.0, 19053.0, 19039.0],
      "WindowWidth": [47954.0, 47822.0, 47782.0, 47806.0, 47914.0, 47870.0, 47812.0, 47720.0, 47653.0, 47731.0, 47810.0, 47799.0, 47718.0, 47664.0, 47685.0, 47797.0, 47799.0, 47708.0, 47613.0, 47631.0, 47642.0, 47652.0, 47707.0, 47819.0, 47779.0, 47746.0, 47754.0, 47777.0, 47816.0, 47801.0, 47770.0, 47673.0, 47673.0, 47741.0, 47839.0, 47850.0, 47774.0, 47679.0, 47697.0, 47773.0, 47824.0, 47828.0, 47768.0, 47671.0, 47642.0, 47644.0, 47708.0, 47802.0, 47826.0, 47787.0, 47686.0, 47694.0, 47801.0, 47861.0, 47821.0, 47798.0, 47803.0, 47796.0, 47809.0, 47784.0, 47765.0, 47742.0, 47807.0, 47992.0, 47780.0, 47719.0, 47652.0, 47703.0, 47700.0, 47643.0, 47649.0, 47648.0, 47660.0, 47641.0, 47657.0, 47670.0, 47674.0, 47691.0, 47736.0, 47727.0, 47756.0, 47809.0, 47793.0, 47707.0, 47741.0, 47823.0, 47889.0, 47875.0, 47926.0, 47880.0, 47792.0, 47703.0, 47685.0, 47701.0, 47773.0, 47826.0, 47807.0, 47780.0, 47838.0, 47969.0, 48006.0, 47837.0, 47771.0, 47733.0, 47739.0, 47809.0, 47877.0, 47893.0, 47840.0, 47871.0, 47856.0, 47813.0, 47728.0, 47592.0, 47589.0, 47834.0, 47782.0, 47707.0, 47642.0, 47597.0, 47581.0, 47638.0, 47664.0, 47678.0, 47696.0, 47669.0, 47652.0, 47628.0, 47635.0, 47663.0, 47720.0, 47707.0, 47750.0, 47757.0, 47795.0, 47783.0, 47946.0, 47923.0, 47808.0, 47768.0, 47776.0, 47809.0, 47705.0, 47673.0, 47744.0, 47857.0, 47845.0, 47885.0, 47891.0, 47809.0, 47741.0, 47727.0, 47797.0, 47854.0, 47934.0, 47813.0, 47743.0, 47739.0, 47767.0, 47838.0, 47779.0, 47670.0, 47611.0, 47567.0]
    },
    "slices": {}
  }
}