{
  "AcquisitionMatrixPE": 116,
  "AcquisitionNumber": 1,
  "AcquisitionTime": "18:04:2.545000",
  "BandwidthPerPixelPhaseEncode": 18.539,
  "BaseResolution": 116,
  "BodyPartExamined": "HEAD",
  "ConsistencyInfo": "N4_VD13D_LATEST_20130810",
  "ConversionSoftware": "dcm2niix",
  "ConversionSoftwareVersion": "v1.0.20190410  (JP2:OpenJPEG) (JP-LS:CharLS) GCC5.5.0",
  "DerivedVendorReportedEchoSpacing": 0.000930006,
  "DeviceSerialNumber": "66014",
  "DwellTime": 3e-06,
  "EchoTime": 0.03,
  "EchoTrainLength": 50,
  "EffectiveEchoSpacing": 0.000465003,
  "FlipAngle": 81,
  "ImageComments": "Unaliased_MB3_PE4",
  "ImageOrientationPatientDICOM": [0.999944, -0.0105498, 0.000108669, 0.0104717, 0.991183, -0.132089],
  "ImageType": [
    "ORIGINAL",
    "PRIMARY",
    "M",
    "MB",
    "ND",
    "MOSAIC"
],
  "ImagingFrequency": 123.261,
  "InPlanePhaseEncodingDirectionDICOM": "COL",
  "InstitutionAddress": "Yiheyuan_Road_5_Beijing_Haidian_CN_100871",
  "InstitutionName": "Peking_University",
  "InstitutionalDepartmentName": "Department",
  "MRAcquisitionType": "2D",
  "MagneticFieldStrength": 3,
  "Manufacturer": "Siemens",
  "ManufacturersModelName": "Prisma",
  "Modality": "MR",
  "MultibandAccelerationFactor": 3,
  "ParallelReductionFactorInPlane": 2,
  "PartialFourier": 0.875,
  "PatientPosition": "HFS",
  "PercentPhaseFOV": 100,
  "PhaseEncodingDirection": "j-",
  "PhaseEncodingSteps": 101,
  "PhaseResolution": 1,
  "PixelBandwidth": 1435,
  "ProcedureStepDescription": "Research_Projects_64CH",
  "ProtocolName": "mbep2d_bold_MB3_loca2",
  "PulseSequenceDetails": "%CustomerSeq%_cmrr_mbep2d_bold",
  "ReceiveCoilActiveElements": "HC1-7",
  "ReceiveCoilName": "HeadNeck_64",
  "ReconMatrixPE": 116,
  "RefLinesPE": 44,
  "RepetitionTime": 2,
  "SAR": 0.0539814,
  "ScanOptions": "PFP_FS",
  "ScanningSequence": "EP",
  "SequenceName": "epfid2d1_116",
  "SequenceVariant": "SK_SS",
  "SeriesDescription": "mbep2d_bold_MB3_loca2",
  "SeriesNumber": 10,
  "ShimSetting": [-3443, -2107, -1981, 355, 5, -259, -18, 12],
  "SliceThickness": 1.9,
  "SliceTiming": [0, 0.905, 1.8125, 0.7425, 1.6475, 0.5775, 1.4825, 0.4125, 1.3175, 0.2475, 1.1525, 0.0825, 0.9875, 1.895, 0.825, 1.73, 0.66, 1.565, 0.495, 1.4, 0.33, 1.235, 0.165, 1.07, 0, 0.905, 1.8125, 0.7425, 1.6475, 0.5775, 1.4825, 0.4125, 1.3175, 0.2475, 1.1525, 0.0825, 0.9875, 1.895, 0.825, 1.73, 0.66, 1.565, 0.495, 1.4, 0.33, 1.235, 0.165, 1.07, 0, 0.905, 1.8125, 0.7425, 1.6475, 0.5775, 1.4825, 0.4125, 1.3175, 0.2475, 1.1525, 0.0825, 0.9875, 1.895, 0.825, 1.73, 0.66, 1.565, 0.495, 1.4, 0.33, 1.235, 0.165, 1.07],
  "SoftwareVersions": "syngo_MR_D13D",
  "SpacingBetweenSlices": 1.9,
  "StationName": "AWP66014",
  "TaskName": "localizer",
  "TotalReadoutTime": 0.0534753,
  "TxRefAmp": 239.867,
  "WipMemBlock": "53434d00-344b-47a7-bb7a-f09a96e90a7b||Sequence: vd13d/master r/0735857; Nov 19 2014 09:21:40 by eja",
  "dcmmeta_affine": [
    [-1.8964462280273438, 0.019860168918967247, -0.00244301650673151, 108.55986785888672],
    [0.020008262246847153, 1.8798290491104126, -0.2509564161300659, -94.84635162353516],
    [0.00020609657804016024, 0.2505127489566803, 1.8833520412445068, -77.80963897705078],
    [0.0, 0.0, 0.0, 1.0]
],
  "dcmmeta_reorient_transform": [
    [0.0, -1.0, 0.0, 115.0],
    [1.0, 0.0, 0.0, 0.0],
    [0.0, 0.0, 1.0, 0.0],
    [0.0, 0.0, 0.0, 1.0]
],
  "dcmmeta_shape": [116, 116, 72, 164],
  "dcmmeta_slice_dim": 2,
  "dcmmeta_version": 0.6,
  "global": {
    "const": {
      "AcquisitionMatrix": [116, 0, 0, 116],
      "AngioFlag": "N",
      "BitsAllocated": 16,
      "BitsStored": 16,
      "BodyPartExamined": "HEAD",
      "Columns": 1044,
      "EchoNumbers": 1,
      "EchoTime": 30.0,
      "EchoTrainLength": 50,
      "FlipAngle": 81.0,
      "HighBit": 15,
      "ImageOrientationPatient": [0.99994434329581, -0.0105498105068, 0.00010866910428, 0.01047172545541, 0.99118260790067, -0.1320885337991],
      "ImagePositionPatient": [-1000.0099262793, -984.2908584641, 67.141607011044],
      "ImageType": [
        "ORIGINAL",
        "PRIMARY",
        "M",
        "MB",
        "ND",
        "MOSAIC"
],
      "ImagedNucleus": "1H",
      "ImagingFrequency": 123.260604,
      "InPlanePhaseEncodingDirection": "COL",
      "LargestImagePixelValue": 65535,
      "MRAcquisitionType": "2D",
      "MagneticFieldStrength": 3.0,
      "Manufacturer": "SIEMENS",
      "ManufacturerModelName": "Prisma",
      "Modality": "MR",
      "NumberOfAverages": 1.0,
      "NumberOfPhaseEncodingSteps": 101,
      "PercentPhaseFieldOfView": 100.0,
      "PercentSampling": 100.0,
      "PerformedProcedureStepStartTime": "170952.860000",
      "PhotometricInterpretation": "MONOCHROME2",
      "PixelBandwidth": 1435.0,
      "PixelRepresentation": 0,
      "PixelSpacing": [1.8965517282486, 1.8965517282486],
      "ProtocolName": "mbep2d_bold_MB3_loca2",
      "RepetitionTime": 2000.0,
      "Rows": 1044,
      "SAR": 0.05398141034607,
      "SamplesPerPixel": 1,
      "ScanOptions": [
        "PFP",
        "FS"
],
      "ScanningSequence": "EP",
      "SequenceName": "epfid2d1_116",
      "SequenceVariant": [
        "SK",
        "SS"
],
      "SeriesDescription": "mbep2d_bold_MB3_loca2",
      "SeriesNumber": 10,
      "SeriesTime": "180417.757000",
      "SliceLocation": -64.739924461959,
      "SliceThickness": 1.8999999761581,
      "SmallestImagePixelValue": 0,
      "SoftwareVersions": "syngo MR D13D",
      "SpacingBetweenSlices": 1.9000000494591,
      "SpecificCharacterSet": "ISO_IR 100",
      "StudyID": "1",
      "StudyTime": "170952.781000",
      "TimeOfLastCalibration": ["123723.000000", "123723.000000"],
      "TransmitCoilName": "Body",
      "VariableFlipAngleFlag": "N",
      "WindowCenterWidthExplanation": "Algo1",
      "dBdt": 0.0},
    "slices": {}
  },
  "time": {
    "samples": {
      "AcquisitionNumber": [1, 2, 3, 4, 5, 6, 7, 8, 9, 10, 11, 12, 13, 14, 15, 16, 17, 18, 19, 20, 21, 22, 23, 24, 25, 26, 27, 28, 29, 30, 31, 32, 33, 34, 35, 36, 37, 38, 39, 40, 41, 42, 43, 44, 45, 46, 47, 48, 49, 50, 51, 52, 53, 54, 55, 56, 57, 58, 59, 60, 61, 62, 63, 64, 65, 66, 67, 68, 69, 70, 71, 72, 73, 74, 75, 76, 77, 78, 79, 80, 81, 82, 83, 84, 85, 86, 87, 88, 89, 90, 91, 92, 93, 94, 95, 96, 97, 98, 99, 100, 101, 102, 103, 104, 105, 106, 107, 108, 109, 110, 111, 112, 113, 114, 115, 116, 117, 118, 119, 120, 121, 122, 123, 124, 125, 126, 127, 128, 129, 130, 131, 132, 133, 134, 135, 136, 137, 138, 139, 140, 141, 142, 143, 144, 145, 146, 147, 148, 149, 150, 151, 152, 153, 154, 155, 156, 157, 158, 159, 160, 161, 162, 163, 164],
      "AcquisitionTime": ["180402.545000", "180404.545000", "180406.545000", "180408.545000", "180410.545000", "180412.545000", "180414.545000", "180416.545000", "180418.545000", "180420.545000", "180422.545000", "180424.545000", "180426.545000", "180428.545000", "180430.545000", "180432.545000", "180434.545000", "180436.545000", "180438.545000", "180440.545000", "180442.545000", "180444.545000", "180446.545000", "180448.545000", "180450.545000", "180452.545000", "180454.545000", "180456.545000", "180458.545000", "180500.545000", "180502.545000", "180504.545000", "180506.545000", "180508.545000", "180510.545000", "180512.545000", "180514.545000", "180516.545000", "180518.545000", "180520.545000", "180522.545000", "180524.545000", "180526.545000", "180528.545000", "180530.545000", "180532.545000", "180534.545000", "180536.545000", "180538.545000", "180540.545000", "180542.545000", "180544.545000", "180546.545000", "180548.545000", "180550.545000", "180552.545000", "180554.545000", "180556.545000", "180558.545000", "180600.545000", "180602.545000", "180604.545000", "180606.545000", "180608.545000", "180610.545000", "180612.545000", "180614.545000", "180616.545000", "180618.545000", "180620.545000", "180622.545000", "180624.545000", "180626.545000", "180628.545000", "180630.545000", "180632.545000", "180634.545000", "180636.545000", "180638.545000", "180640.545000", "180642.545000", "180644.545000", "180646.545000", "180648.545000", "180650.545000", "180652.545000", "180654.545000", "180656.545000", "180658.545000", "180700.545000", "180702.545000", "180704.545000", "180706.545000", "180708.545000", "180710.545000", "180712.545000", "180714.545000", "180716.545000", "180718.545000", "180720.545000", "180722.545000", "180724.545000", "180726.545000", "180728.545000", "180730.545000", "180732.545000", "180734.545000", "180736.545000", "180738.545000", "180740.545000", "180742.545000", "180744.545000", "180746.545000", "180748.545000", "180750.545000", "180752.545000", "180754.545000", "180756.545000", "180758.545000", "180800.545000", "180802.545000", "180804.545000", "180806.545000", "180808.545000", "180810.545000", "180812.545000", "180814.545000", "180816.545000", "180818.545000", "180820.545000", "180822.545000", "180824.545000", "180826.545000", "180828.545000", "180830.545000", "180832.545000", "180834.545000", "180836.545000", "180838.545000", "180840.545000", "180842.545000", "180844.545000", "180846.545000", "180848.545000", "180850.545000", "180852.545000", "180854.545000", "180856.545000", "180858.545000", "180900.545000", "180902.545000", "180904.545000", "180906.545000", "180908.545000", "180910.545000", "180912.545000", "180914.545000", "180916.545000", "180918.545000", "180920.545000", "180922.545000", "180924.545000", "180926.545000", "180928.545000"],
      "ContentTime": ["180417.763000", "180418.756000", "180419.755000", "180419.760000", "180420.754000", "180421.756000", "180421.761000", "180422.755000", "180423.756000", "180424.756000", "180425.756000", "180426.756000", "180428.756000", "180430.756000", "180432.756000", "180434.756000", "180436.756000", "180438.756000", "180440.757000", "180442.757000", "180444.756000", "180446.757000", "180448.756000", "180450.757000", "180452.756000", "180454.757000", "180456.757000", "180458.756000", "180500.757000", "180502.757000", "180504.756000", "180506.756000", "180508.756000", "180510.756000", "180512.756000", "180514.756000", "180516.757000", "180518.757000", "180520.756000", "180522.756000", "180524.756000", "180526.756000", "180528.756000", "180530.756000", "180532.756000", "180534.757000", "180536.756000", "180538.756000", "180540.756000", "180542.757000", "180544.756000", "180546.756000", "180548.756000", "180550.756000", "180552.757000", "180554.756000", "180556.756000", "180558.756000", "180600.755000", "180602.756000", "180604.756000", "180606.756000", "180608.756000", "180610.757000", "180612.756000", "180614.756000", "180616.756000", "180618.756000", "180620.756000", "180622.756000", "180624.756000", "180626.757000", "180628.758000", "180630.756000", "180632.756000", "180634.756000", "180636.756000", "180638.768000", "180640.754000", "180642.756000", "180644.757000", "180646.756000", "180648.756000", "180650.757000", "180652.757000", "180654.756000", "180656.756000", "180658.756000", "180700.756000", "180702.758000", "180704.756000", "180706.756000", "180708.756000", "180710.756000", "180712.756000", "180714.755000", "180716.755000", "180718.756000", "180720.757000", "180722.756000", "180724.755000", "180726.756000", "180728.756000", "180730.756000", "180732.756000", "180734.756000", "180736.757000", "180738.757000", "180740.757000", "180742.756000", "180744.756000", "180746.756000", "180748.756000", "180750.754000", "180752.756000", "180754.757000", "180756.756000", "180758.756000", "180800.757000", "180802.756000", "180804.754000", "180806.756000", "180808.756000", "180810.757000", "180812.756000", "180814.756000", "180816.757000", "180818.756000", "180820.757000", "180822.756000", "180824.756000", "180826.756000", "180828.756000", "180830.757000", "180832.756000", "180834.756000", "180836.756000", "180838.756000", "180840.757000", "180842.756000", "180844.756000", "180846.757000", "180848.757000", "180850.756000", "180852.756000", "180854.756000", "180856.756000", "180858.757000", "180900.756000", "180902.756000", "180904.757000", "180906.756000", "180908.756000", "180910.755000", "180912.756000", "180914.756000", "180916.756000", "180918.755000", "180920.756000", "180922.757000", "180924.756000", "180926.756000", "180928.755000", "180930.690000"],
      "InstanceCreationTime": ["180417.763000", "180418.756000", "180419.755000", "180419.760000", "180420.754000", "180421.756000", "180421.761000", "180422.755000", "180423.756000", "180424.756000", "180425.756000", "180426.756000", "180428.756000", "180430.756000", "180432.756000", "180434.756000", "180436.756000", "180438.756000", "180440.757000", "180442.757000", "180444.756000", "180446.757000", "180448.756000", "180450.757000", "180452.756000", "180454.757000", "180456.757000", "180458.756000", "180500.757000", "180502.757000", "180504.756000", "180506.756000", "180508.756000", "180510.756000", "180512.756000", "180514.756000", "180516.757000", "180518.757000", "180520.756000", "180522.756000", "180524.756000", "180526.756000", "180528.756000", "180530.756000", "180532.756000", "180534.757000", "180536.756000", "180538.756000", "180540.756000", "180542.757000", "180544.756000", "180546.756000", "180548.756000", "180550.756000", "180552.757000", "180554.756000", "180556.756000", "180558.756000", "180600.755000", "180602.756000", "180604.756000", "180606.756000", "180608.756000", "180610.757000", "180612.756000", "180614.756000", "180616.756000", "180618.756000", "180620.756000", "180622.756000", "180624.756000", "180626.757000", "180628.758000", "180630.756000", "180632.756000", "180634.756000", "180636.756000", "180638.768000", "180640.754000", "180642.756000", "180644.757000", "180646.756000", "180648.756000", "180650.757000", "180652.757000", "180654.756000", "180656.756000", "180658.756000", "180700.756000", "180702.758000", "180704.756000", "180706.756000", "180708.756000", "180710.756000", "180712.756000", "180714.755000", "180716.755000", "180718.756000", "180720.757000", "180722.756000", "180724.755000", "180726.756000", "180728.756000", "180730.756000", "180732.756000", "180734.756000", "180736.757000", "180738.757000", "180740.757000", "180742.756000", "180744.756000", "180746.756000", "180748.756000", "180750.754000", "180752.756000", "180754.757000", "180756.756000", "180758.756000", "180800.757000", "180802.756000", "180804.754000", "180806.756000", "180808.756000", "180810.757000", "180812.756000", "180814.756000", "180816.757000", "180818.756000", "180820.757000", "180822.756000", "180824.756000", "180826.756000", "180828.756000", "180830.757000", "180832.756000", "180834.756000", "180836.756000", "180838.756000", "180840.757000", "180842.756000", "180844.756000", "180846.757000", "180848.757000", "180850.756000", "180852.756000", "180854.756000", "180856.756000", "180858.757000", "180900.756000", "180902.756000", "180904.757000", "180906.756000", "180908.756000", "180910.755000", "180912.756000", "180914.756000", "180916.756000", "180918.755000", "180920.756000", "180922.757000", "180924.756000", "180926.756000", "180928.755000", "180930.690000"],
      "InstanceNumber": [1, 2, 3, 4, 5, 6, 7, 8, 9, 10, 11, 12, 13, 14, 15, 16, 17, 18, 19, 20, 21, 22, 23, 24, 25, 26, 27, 28, 29, 30, 31, 32, 33, 34, 35, 36, 37, 38, 39, 40, 41, 42, 43, 44, 45, 46, 47, 48, 49, 50, 51, 52, 53, 54, 55, 56, 57, 58, 59, 60, 61, 62, 63, 64, 65, 66, 67, 68, 69, 70, 71, 72, 73, 74, 75, 76, 77, 78, 79, 80, 81, 82, 83, 84, 85, 86, 87, 88, 89, 90, 91, 92, 93, 94, 95, 96, 97, 98, 99, 100, 101, 102, 103, 104, 105, 106, 107, 108, 109, 110, 111, 112, 113, 114, 115, 116, 117, 118, 119, 120, 121, 122, 123, 124, 125, 126, 127, 128, 129, 130, 131, 132, 133, 134, 135, 136, 137, 138, 139, 140, 141, 142, 143, 144, 145, 146, 147, 148, 149, 150, 151, 152, 153, 154, 155, 156, 157, 158, 159, 160, 161, 162, 163, 164],
      "WindowCenter": [19141.0, 19090.0, 19095.0, 19113.0, 19150.0, 19155.0, 19124.0, 19075.0, 19074.0, 19052.0, 19066.0, 19068.0, 19071.0, 19064.0, 19094.0, 19105.0, 19081.0, 19053.0, 19049.0, 19052.0, 19008.0, 19016.0, 19035.0, 19066.0, 19052.0, 19051.0, 19034.0, 19061.0, 19088.0, 19093.0, 19088.0, 19100.0, 19119.0, 19094.0, 19061.0, 19041.0, 19040.0, 19048.0, 19081.0, 19086.0, 19061.0, 19044.0, 19070.0, 19085.0, 19124.0, 19089.0, 19096.0, 19072.0, 19090.0, 19088.0, 19072.0, 19068.0, 19106.0, 19109.0, 19096.0, 19053.0, 19003.0, 19038.0, 19094.0, 19072.0, 19064.0, 19057.0, 19031.0, 19037.0, 19043.0, 19053.0, 19070.0, 19079.0, 19091.0, 19115.0, 19101.0, 19070.0, 19039.0, 19045.0, 19125.0, 19096.0, 19059.0, 19035.0, 19014.0, 19028.0, 19030.0, 19017.0, 19033.0, 19058.0, 19091.0, 19083.0, 19062.0, 19065.0, 19063.0, 19073.0, 19076.0, 19076.0, 19092.0, 19064.0, 19056.0, 19065.0, 19081.0, 19065.0, 19057.0, 19062.0, 19056.0, 19073.0, 19125.0, 19110.0, 19099.0, 19093.0, 19118.0, 19165.0, 19133.0, 19070.0, 19045.0, 19020.0, 19112.0, 19107.0, 19121.0, 19130.0, 19133.0, 19120.0, 19106.0, 19113.0, 19098.0, 19106.0, 19074.0, 19067.0, 19092.0, 19133.0, 19110.0, 19078.0, 19079.0, 19087.0, 19100.0, 19119.0, 19105.0, 19076.0, 19060.0, 19083.0, 19070.0, 19066.0, 19082.0, 19088.0, 19133.0, 19134.0, 19147.0, 19127.0, 19091.0, 19067.0, 19065.0, 19068.0, 19066.0, 19091.0, 19156.0, 19146.0, 19107.0, 19102.0, 19119.0, 19134.0, 19143.0, 19118.0, 19081.0, 19067.0, 19067.0, 19089.0, 19098.0, 19082.0],
      "WindowWidth": [47882.0, 47796.0, 47787.0, 47857.0, 47944.0, 47946.0, 47829.0, 47703.0, 47669.0, 47654.0, 47711.0, 47735.0, 47761.0, 47731.0, 47836.0, 47865.0, 47813.0, 47699.0, 47674.0, 47596.0, 47567.0, 47582.0, 47665.0, 47732.0, 47698.0, 47628.0, 47620.0, 47733.0, 47833.0, 47799.0, 47797.0, 47899.0, 47919.0, 47796.0, 47693.0, 47682.0, 47683.0, 47724.0, 47769.0, 47745.0, 47683.0, 47685.0, 47740.0, 47830.0, 47880.0, 47763.0, 47720.0, 47717.0, 47765.0, 47821.0, 47690.0, 47716.0, 47903.0, 47914.0, 47775.0, 47654.0, 47503.0, 47657.0, 47813.0, 47727.0, 47676.0, 47623.0, 47596.0, 47589.0, 47593.0, 47647.0, 47727.0, 47721.0, 47789.0, 47841.0, 47771.0, 47715.0, 47633.0, 47651.0, 47929.0, 47846.0, 47727.0, 47629.0, 47512.0, 47498.0, 47479.0, 47540.0, 47623.0, 47698.0, 47801.0, 47736.0, 47724.0, 47725.0, 47724.0, 47730.0, 47769.0, 47731.0, 47754.0, 47650.0, 47658.0, 47757.0, 47747.0, 47722.0, 47705.0, 47685.0, 47705.0, 47775.0, 47928.0, 47812.0, 47733.0, 47755.0, 47892.0, 48002.0, 47932.0, 47745.0, 47625.0, 47595.0, 47859.0, 47842.0, 47818.0, 47836.0, 47826.0, 47795.0, 47846.0, 47837.0, 47816.0, 47795.0, 47655.0, 47629.0, 47824.0, 47943.0, 47819.0, 47728.0, 47745.0, 47774.0, 47900.0, 47897.0, 47795.0, 47763.0, 47753.0, 47757.0, 47700.0, 47720.0, 47744.0, 47809.0, 47933.0, 48005.0, 47988.0, 47902.0, 47785.0, 47722.0, 47709.0, 47723.0, 47758.0, 47847.0, 47914.0, 47921.0, 47834.0, 47820.0, 47845.0, 47923.0, 47928.0, 47850.0, 47754.0, 47711.0, 47735.0, 47809.0, 47791.0, 47769.0]
    },
    "slices": {}
  }
}