{
  "AcquisitionMatrixPE": 116,
  "AcquisitionNumber": 1,
  "AcquisitionTime": "14:27:11.660000",
  "BandwidthPerPixelPhaseEncode": 18.539,
  "BaseResolution": 116,
  "BodyPartExamined": "HEAD",
  "ConsistencyInfo": "N4_VD13D_LATEST_20130810",
  "ConversionSoftware": "dcm2niix",
  "ConversionSoftwareVersion": "v1.0.20190410  (JP2:OpenJPEG) (JP-LS:CharLS) GCC5.5.0",
  "DerivedVendorReportedEchoSpacing": 0.000930006,
  "DeviceSerialNumber": "66014",
  "DwellTime": 3e-06,
  "EchoTime": 0.03,
  "EchoTrainLength": 50,
  "EffectiveEchoSpacing": 0.000465003,
  "FlipAngle": 81,
  "ImageComments": "Unaliased_MB3_PE4",
  "ImageOrientationPatientDICOM": [0.999945, -0.00465458, 0.00940713, 0.00349048, 0.992746, 0.120179],
  "ImageType": [
    "ORIGINAL",
    "PRIMARY",
    "M",
    "MB",
    "ND",
    "MOSAIC"
],
  "ImagingFrequency": 123.261,
  "InPlanePhaseEncodingDirectionDICOM": "COL",
  "InstitutionAddress": "Yiheyuan_Road_5_Beijing_Haidian_CN_100871",
  "InstitutionName": "Peking_University",
  "InstitutionalDepartmentName": "Department",
  "MRAcquisitionType": "2D",
  "MagneticFieldStrength": 3,
  "Manufacturer": "Siemens",
  "ManufacturersModelName": "Prisma",
  "Modality": "MR",
  "MultibandAccelerationFactor": 3,
  "ParallelReductionFactorInPlane": 2,
  "PartialFourier": 0.875,
  "PatientPosition": "HFS",
  "PercentPhaseFOV": 100,
  "PhaseEncodingDirection": "j-",
  "PhaseEncodingSteps": 101,
  "PhaseResolution": 1,
  "PixelBandwidth": 1435,
  "ProcedureStepDescription": "Research_Projects_64CH",
  "ProtocolName": "mbep2d_bold_MB3_learn2",
  "PulseSequenceDetails": "%CustomerSeq%_cmrr_mbep2d_bold",
  "ReceiveCoilActiveElements": "HC1-7",
  "ReceiveCoilName": "HeadNeck_64",
  "ReconMatrixPE": 116,
  "RefLinesPE": 44,
  "RepetitionTime": 2,
  "SAR": 0.0653177,
  "ScanOptions": "PFP_FS",
  "ScanningSequence": "EP",
  "SequenceName": "epfid2d1_116",
  "SequenceVariant": "SK_SS",
  "SeriesDescription": "mbep2d_bold_MB3_learn2",
  "SeriesNumber": 7,
  "ShimSetting": [-3461, -2105, -1987, 428, -15, -242, 58, 27],
  "SliceThickness": 1.9,
  "SliceTiming": [0, 0.9075, 1.815, 0.7425, 1.65, 0.5775, 1.485, 0.4125, 1.32, 0.2475, 1.155, 0.0825, 0.99, 1.8975, 0.825, 1.7325, 0.66, 1.5675, 0.495, 1.4025, 0.33, 1.2375, 0.165, 1.0725, 0, 0.9075, 1.815, 0.7425, 1.65, 0.5775, 1.485, 0.4125, 1.32, 0.2475, 1.155, 0.0825, 0.99, 1.8975, 0.825, 1.7325, 0.66, 1.5675, 0.495, 1.4025, 0.33, 1.2375, 0.165, 1.0725, 0, 0.9075, 1.815, 0.7425, 1.65, 0.5775, 1.485, 0.4125, 1.32, 0.2475, 1.155, 0.0825, 0.99, 1.8975, 0.825, 1.7325, 0.66, 1.5675, 0.495, 1.4025, 0.33, 1.2375, 0.165, 1.0725],
  "SoftwareVersions": "syngo_MR_D13D",
  "SpacingBetweenSlices": 1.9,
  "StationName": "AWP66014",
  "TaskName": "updating",
  "TotalReadoutTime": 0.0534753,
  "TxRefAmp": 231.954,
  "WipMemBlock": "9e188e76-b1ac-440a-909f-0b99a9e5aab9||Sequence: vd13d/master r/0735857; Nov 19 2014 09:21:40 by eja",
  "dcmmeta_affine": [
    [-1.8964473009109497, 0.006619870197027922, 0.018806708976626396, 108.74653625488281],
    [0.008827658370137215, 1.8827943801879883, 0.22826433181762695, -102.7679443359375],
    [0.017841098830103874, -0.2279248982667923, 1.8861446380615234, -50.14541244506836],
    [0.0, 0.0, 0.0, 1.0]
],
  "dcmmeta_reorient_transform": [
    [0.0, -1.0, 0.0, 115.0],
    [1.0, 0.0, 0.0, 0.0],
    [0.0, 0.0, 1.0, 0.0],
    [0.0, 0.0, 0.0, 1.0]
],
  "dcmmeta_shape": [116, 116, 72, 218],
  "dcmmeta_slice_dim": 2,
  "dcmmeta_version": 0.6,
  "global": {
    "const": {
      "AcquisitionMatrix": [116, 0, 0, 116],
      "AngioFlag": "N",
      "BitsAllocated": 16,
      "BitsStored": 16,
      "BodyPartExamined": "HEAD",
      "Columns": 1044,
      "EchoNumbers": 1,
      "EchoTime": 30.0,
      "EchoTrainLength": 50,
      "FlipAngle": 81.0,
      "HighBit": 15,
      "ImageOrientationPatient": [0.99994491890984, -0.0046545833326, 0.00940712497988, 0.00349047700847, 0.99274615324514, 0.12017858289743],
      "ImagePositionPatient": [-992.53097359521, -983.27400224273, -190.39219940423],
      "ImageType": [
        "ORIGINAL",
        "PRIMARY",
        "M",
        "MB",
        "ND",
        "MOSAIC"
],
      "ImagedNucleus": "1H",
      "ImagingFrequency": 123.260578,
      "InPlanePhaseEncodingDirection": "COL",
      "LargestImagePixelValue": 65535,
      "MRAcquisitionType": "2D",
      "MagneticFieldStrength": 3.0,
      "Manufacturer": "SIEMENS",
      "ManufacturerModelName": "Prisma",
      "Modality": "MR",
      "NumberOfAverages": 1.0,
      "NumberOfPhaseEncodingSteps": 101,
      "PercentPhaseFieldOfView": 100.0,
      "PercentSampling": 100.0,
      "PerformedProcedureStepStartTime": "140236.613000",
      "PhotometricInterpretation": "MONOCHROME2",
      "PixelBandwidth": 1435.0,
      "PixelRepresentation": 0,
      "PixelSpacing": [1.8965517282486, 1.8965517282486],
      "ProtocolName": "mbep2d_bold_MB3_learn2",
      "RepetitionTime": 2000.0,
      "Rows": 1044,
      "SAR": 0.06531775276571,
      "SamplesPerPixel": 1,
      "ScanOptions": [
        "PFP",
        "FS"
],
      "ScanningSequence": "EP",
      "SequenceName": "epfid2d1_116",
      "SequenceVariant": [
        "SK",
        "SS"
],
      "SeriesDescription": "mbep2d_bold_MB3_learn2",
      "SeriesNumber": 7,
      "SeriesTime": "142727.095000",
      "SliceLocation": -61.049786746216,
      "SliceThickness": 1.8999999761581,
      "SmallestImagePixelValue": 0,
      "SoftwareVersions": "syngo MR D13D",
      "SpacingBetweenSlices": 1.8999999443453,
      "SpecificCharacterSet": "ISO_IR 100",
      "StudyID": "1",
      "StudyTime": "140236.536000",
      "TimeOfLastCalibration": ["123723.000000", "123723.000000"],
      "TransmitCoilName": "Body",
      "VariableFlipAngleFlag": "N",
      "WindowCenterWidthExplanation": "Algo1",
      "dBdt": 0.0},
    "slices": {}
  },
  "time": {
    "samples": {
      "AcquisitionNumber": [1, 2, 3, 4, 5, 6, 7, 8, 9, 10, 11, 12, 13, 14, 15, 16, 17, 18, 19, 20, 21, 22, 23, 24, 25, 26, 27, 28, 29, 30, 31, 32, 33, 34, 35, 36, 37, 38, 39, 40, 41, 42, 43, 44, 45, 46, 47, 48, 49, 50, 51, 52, 53, 54, 55, 56, 57, 58, 59, 60, 61, 62, 63, 64, 65, 66, 67, 68, 69, 70, 71, 72, 73, 74, 75, 76, 77, 78, 79, 80, 81, 82, 83, 84, 85, 86, 87, 88, 89, 90, 91, 92, 93, 94, 95, 96, 97, 98, 99, 100, 101, 102, 103, 104, 105, 106, 107, 108, 109, 110, 111, 112, 113, 114, 115, 116, 117, 118, 119, 120, 121, 122, 123, 124, 125, 126, 127, 128, 129, 130, 131, 132, 133, 134, 135, 136, 137, 138, 139, 140, 141, 142, 143, 144, 145, 146, 147, 148, 149, 150, 151, 152, 153, 154, 155, 156, 157, 158, 159, 160, 161, 162, 163, 164, 165, 166, 167, 168, 169, 170, 171, 172, 173, 174, 175, 176, 177, 178, 179, 180, 181, 182, 183, 184, 185, 186, 187, 188, 189, 190, 191, 192, 193, 194, 195, 196, 197, 198, 199, 200, 201, 202, 203, 204, 205, 206, 207, 208, 209, 210, 211, 212, 213, 214, 215, 216, 217, 218],
      "AcquisitionTime": ["142711.660000", "142713.660000", "142715.660000", "142717.660000", "142719.660000", "142721.660000", "142723.660000", "142725.660000", "142727.660000", "142729.660000", "142731.660000", "142733.660000", "142735.660000", "142737.660000", "142739.660000", "142741.660000", "142743.660000", "142745.660000", "142747.660000", "142749.660000", "142751.660000", "142753.660000", "142755.660000", "142757.660000", "142759.660000", "142801.660000", "142803.660000", "142805.660000", "142807.660000", "142809.660000", "142811.660000", "142813.660000", "142815.660000", "142817.660000", "142819.660000", "142821.660000", "142823.660000", "142825.660000", "142827.660000", "142829.660000", "142831.660000", "142833.660000", "142835.660000", "142837.660000", "142839.660000", "142841.660000", "142843.660000", "142845.660000", "142847.660000", "142849.660000", "142851.660000", "142853.660000", "142855.660000", "142857.660000", "142859.660000", "142901.660000", "142903.660000", "142905.660000", "142907.660000", "142909.660000", "142911.660000", "142913.660000", "142915.660000", "142917.660000", "142919.660000", "142921.660000", "142923.660000", "142925.660000", "142927.660000", "142929.660000", "142931.660000", "142933.660000", "142935.660000", "142937.660000", "142939.660000", "142941.660000", "142943.660000", "142945.660000", "142947.660000", "142949.660000", "142951.660000", "142953.660000", "142955.660000", "142957.660000", "142959.660000", "143001.660000", "143003.660000", "143005.660000", "143007.660000", "143009.660000", "143011.660000", "143013.660000", "143015.660000", "143017.660000", "143019.660000", "143021.660000", "143023.660000", "143025.660000", "143027.660000", "143029.660000", "143031.660000", "143033.660000", "143035.660000", "143037.660000", "143039.660000", "143041.660000", "143043.660000", "143045.660000", "143047.660000", "143049.660000", "143051.660000", "143053.660000", "143055.660000", "143057.660000", "143059.660000", "143101.660000", "143103.660000", "143105.660000", "143107.660000", "143109.660000", "143111.660000", "143113.660000", "143115.660000", "143117.660000", "143119.660000", "143121.660000", "143123.660000", "143125.660000", "143127.660000", "143129.660000", "143131.660000", "143133.660000", "143135.660000", "143137.660000", "143139.660000", "143141.660000", "143143.660000", "143145.660000", "143147.660000", "143149.660000", "143151.660000", "143153.660000", "143155.660000", "143157.660000", "143159.660000", "143201.660000", "143203.660000", "143205.660000", "143207.660000", "143209.660000", "143211.660000", "143213.660000", "143215.660000", "143217.660000", "143219.660000", "143221.660000", "143223.660000", "143225.660000", "143227.660000", "143229.660000", "143231.660000", "143233.660000", "143235.660000", "143237.660000", "143239.660000", "143241.660000", "143243.660000", "143245.660000", "143247.660000", "143249.662500", "143251.662500", "143253.662500", "143255.662500", "143257.662500", "143259.662500", "143301.662500", "143303.662500", "143305.662500", "143307.662500", "143309.662500", "143311.662500", "143313.662500", "143315.662500", "143317.662500", "143319.662500", "143321.662500", "143323.662500", "143325.662500", "143327.662500", "143329.662500", "143331.662500", "143333.662500", "143335.662500", "143337.662500", "143339.662500", "143341.662500", "143343.662500", "143345.662500", "143347.662500", "143349.662500", "143351.662500", "143353.662500", "143355.662500", "143357.662500", "143359.662500", "143401.662500", "143403.662500", "143405.662500", "143407.662500", "143409.662500", "143411.662500", "143413.662500", "143415.662500", "143417.662500", "143419.662500", "143421.662500", "143423.662500", "143425.662500"],
      "ContentTime": ["142727.101000", "142728.094000", "142729.094000", "142729.098000", "142730.094000", "142731.094000", "142732.092000", "142732.096000", "142733.092000", "142734.093000", "142735.094000", "142737.095000", "142739.095000", "142741.095000", "142743.095000", "142745.095000", "142747.094000", "142749.094000", "142751.094000", "142753.094000", "142755.095000", "142757.095000", "142759.095000", "142801.095000", "142803.095000", "142805.094000", "142807.095000", "142809.094000", "142811.094000", "142813.095000", "142815.095000", "142817.095000", "142819.096000", "142821.095000", "142823.092000", "142825.093000", "142827.094000", "142829.095000", "142831.095000", "142833.095000", "142835.095000", "142837.095000", "142839.095000", "142841.094000", "142843.094000", "142845.094000", "142847.095000", "142849.095000", "142851.095000", "142853.095000", "142855.095000", "142857.094000", "142859.094000", "142901.094000", "142903.094000", "142905.094000", "142907.095000", "142909.095000", "142911.095000", "142913.095000", "142915.094000", "142917.094000", "142919.094000", "142921.094000", "142923.095000", "142925.095000", "142927.107000", "142929.095000", "142931.095000", "142933.094000", "142935.094000", "142937.094000", "142939.096000", "142941.095000", "142943.095000", "142945.095000", "142947.095000", "142949.095000", "142951.094000", "142953.094000", "142955.094000", "142957.093000", "142959.095000", "143001.095000", "143003.095000", "143005.095000", "143007.094000", "143009.093000", "143011.094000", "143013.094000", "143015.095000", "143017.095000", "143019.095000", "143021.096000", "143023.095000", "143025.094000", "143027.094000", "143029.094000", "143031.094000", "143033.095000", "143035.095000", "143037.095000", "143039.095000", "143041.095000", "143043.094000", "143045.094000", "143047.095000", "143049.095000", "143051.095000", "143053.095000", "143055.095000", "143057.095000", "143059.095000", "143101.094000", "143103.094000", "143105.094000", "143107.095000", "143109.095000", "143111.095000", "143113.095000", "143115.095000", "143117.094000", "143119.094000", "143121.094000", "143123.094000", "143125.095000", "143127.095000", "143129.096000", "143131.095000", "143133.095000", "143135.094000", "143137.094000", "143139.094000", "143141.094000", "143143.096000", "143145.095000", "143147.095000", "143149.095000", "143151.095000", "143153.094000", "143155.094000", "143157.094000", "143159.095000", "143201.095000", "143203.096000", "143205.095000", "143207.095000", "143209.096000", "143211.094000", "143213.094000", "143215.094000", "143217.094000", "143219.095000", "143221.095000", "143223.093000", "143225.095000", "143227.094000", "143229.094000", "143231.094000", "143233.094000", "143235.095000", "143237.095000", "143239.095000", "143241.095000", "143243.096000", "143245.095000", "143247.095000", "143249.094000", "143251.094000", "143253.095000", "143255.095000", "143257.095000", "143259.095000", "143301.095000", "143303.094000", "143305.094000", "143307.095000", "143309.095000", "143311.095000", "143313.095000", "143315.096000", "143317.095000", "143319.095000", "143321.094000", "143323.094000", "143325.094000", "143327.095000", "143329.096000", "143331.096000", "143333.095000", "143335.095000", "143337.094000", "143339.094000", "143341.094000", "143343.094000", "143345.095000", "143347.095000", "143349.096000", "143351.096000", "143353.095000", "143355.094000", "143357.095000", "143359.094000", "143401.096000", "143403.096000", "143405.095000", "143407.095000", "143409.095000", "143411.095000", "143413.094000", "143415.095000", "143417.097000", "143419.097000", "143421.098000", "143423.095000", "143425.095000", "143427.095000", "143428.622000"],
      "InstanceCreationTime": ["142727.101000", "142728.094000", "142729.094000", "142729.098000", "142730.094000", "142731.094000", "142732.092000", "142732.096000", "142733.092000", "142734.093000", "142735.094000", "142737.095000", "142739.095000", "142741.095000", "142743.095000", "142745.095000", "142747.094000", "142749.094000", "142751.094000", "142753.094000", "142755.095000", "142757.095000", "142759.095000", "142801.095000", "142803.095000", "142805.094000", "142807.095000", "142809.094000", "142811.094000", "142813.095000", "142815.095000", "142817.095000", "142819.096000", "142821.095000", "142823.092000", "142825.093000", "142827.094000", "142829.095000", "142831.095000", "142833.095000", "142835.095000", "142837.095000", "142839.095000", "142841.094000", "142843.094000", "142845.094000", "142847.095000", "142849.095000", "142851.095000", "142853.095000", "142855.095000", "142857.094000", "142859.094000", "142901.094000", "142903.094000", "142905.094000", "142907.095000", "142909.095000", "142911.095000", "142913.095000", "142915.094000", "142917.094000", "142919.094000", "142921.094000", "142923.095000", "142925.095000", "142927.107000", "142929.095000", "142931.095000", "142933.094000", "142935.094000", "142937.094000", "142939.096000", "142941.095000", "142943.095000", "142945.095000", "142947.095000", "142949.095000", "142951.094000", "142953.094000", "142955.094000", "142957.093000", "142959.095000", "143001.095000", "143003.095000", "143005.095000", "143007.094000", "143009.093000", "143011.094000", "143013.094000", "143015.095000", "143017.095000", "143019.095000", "143021.096000", "143023.095000", "143025.094000", "143027.094000", "143029.094000", "143031.094000", "143033.095000", "143035.095000", "143037.095000", "143039.095000", "143041.095000", "143043.094000", "143045.094000", "143047.095000", "143049.095000", "143051.095000", "143053.095000", "143055.095000", "143057.095000", "143059.095000", "143101.094000", "143103.094000", "143105.094000", "143107.095000", "143109.095000", "143111.095000", "143113.095000", "143115.095000", "143117.094000", "143119.094000", "143121.094000", "143123.094000", "143125.095000", "143127.095000", "143129.096000", "143131.095000", "143133.095000", "143135.094000", "143137.094000", "143139.094000", "143141.094000", "143143.096000", "143145.095000", "143147.095000", "143149.095000", "143151.095000", "143153.094000", "143155.094000", "143157.094000", "143159.095000", "143201.095000", "143203.096000", "143205.095000", "143207.095000", "143209.096000", "143211.094000", "143213.094000", "143215.094000", "143217.094000", "143219.095000", "143221.095000", "143223.093000", "143225.095000", "143227.094000", "143229.094000", "143231.094000", "143233.094000", "143235.095000", "143237.095000", "143239.095000", "143241.095000", "143243.096000", "143245.095000", "143247.095000", "143249.094000", "143251.094000", "143253.095000", "143255.095000", "143257.095000", "143259.095000", "143301.095000", "143303.094000", "143305.094000", "143307.095000", "143309.095000", "143311.095000", "143313.095000", "143315.096000", "143317.095000", "143319.095000", "143321.094000", "143323.094000", "143325.094000", "143327.095000", "143329.096000", "143331.096000", "143333.095000", "143335.095000", "143337.094000", "143339.094000", "143341.094000", "143343.094000", "143345.095000", "143347.095000", "143349.096000", "143351.096000", "143353.095000", "143355.094000", "143357.095000", "143359.094000", "143401.096000", "143403.096000", "143405.095000", "143407.095000", "143409.095000", "143411.095000", "143413.094000", "143415.095000", "143417.097000", "143419.097000", "143421.098000", "143423.095000", "143425.095000", "143427.095000", "143428.622000"],
      "InstanceNumber": [1, 2, 3, 4, 5, 6, 7, 8, 9, 10, 11, 12, 13, 14, 15, 16, 17, 18, 19, 20, 21, 22, 23, 24, 25, 26, 27, 28, 29, 30, 31, 32, 33, 34, 35, 36, 37, 38, 39, 40, 41, 42, 43, 44, 45, 46, 47, 48, 49, 50, 51, 52, 53, 54, 55, 56, 57, 58, 59, 60, 61, 62, 63, 64, 65, 66, 67, 68, 69, 70, 71, 72, 73, 74, 75, 76, 77, 78, 79, 80, 81, 82, 83, 84, 85, 86, 87, 88, 89, 90, 91, 92, 93, 94, 95, 96, 97, 98, 99, 100, 101, 102, 103, 104, 105, 106, 107, 108, 109, 110, 111, 112, 113, 114, 115, 116, 117, 118, 119, 120, 121, 122, 123, 124, 125, 126, 127, 128, 129, 130, 131, 132, 133, 134, 135, 136, 137, 138, 139, 140, 141, 142, 143, 144, 145, 146, 147, 148, 149, 150, 151, 152, 153, 154, 155, 156, 157, 158, 159, 160, 161, 162, 163, 164, 165, 166, 167, 168, 169, 170, 171, 172, 173, 174, 175, 176, 177, 178, 179, 180, 181, 182, 183, 184, 185, 186, 187, 188, 189, 190, 191, 192, 193, 194, 195, 196, 197, 198, 199, 200, 201, 202, 203, 204, 205, 206, 207, 208, 209, 210, 211, 212, 213, 214, 215, 216, 217, 218],
      "WindowCenter": [18214.0, 18194.0, 18198.0, 18200.0, 18194.0, 18211.0, 18205.0, 18205.0, 18192.0, 18185.0, 18169.0, 18183.0, 18185.0, 18186.0, 18175.0, 18161.0, 18157.0, 18168.0, 18174.0, 18169.0, 18149.0, 18154.0, 18167.0, 18179.0, 18186.0, 18192.0, 18197.0, 18198.0, 18181.0, 18180.0, 18149.0, 18214.0, 18191.0, 18185.0, 18167.0, 18149.0, 18158.0, 18151.0, 18149.0, 18159.0, 18155.0, 18150.0, 18139.0, 18142.0, 18131.0, 18160.0, 18147.0, 18144.0, 18145.0, 18156.0, 18162.0, 18157.0, 18169.0, 18180.0, 18175.0, 18188.0, 18174.0, 18174.0, 18174.0, 18164.0, 18154.0, 18161.0, 18165.0, 18172.0, 18163.0, 18151.0, 18167.0, 18177.0, 18174.0, 18170.0, 18175.0, 18171.0, 18163.0, 18160.0, 18166.0, 18180.0, 18177.0, 18169.0, 18171.0, 18161.0, 18156.0, 18154.0, 18167.0, 18155.0, 18167.0, 18174.0, 18209.0, 18190.0, 18171.0, 18172.0, 18167.0, 18183.0, 18181.0, 18170.0, 18175.0, 18182.0, 18196.0, 18185.0, 18171.0, 18172.0, 18180.0, 18183.0, 18187.0, 18184.0, 18177.0, 18162.0, 18187.0, 18211.0, 18205.0, 18183.0, 18166.0, 18171.0, 18169.0, 18173.0, 18156.0, 18153.0, 18151.0, 18164.0, 18171.0, 18172.0, 18168.0, 18171.0, 18167.0, 18173.0, 18174.0, 18182.0, 18192.0, 18201.0, 18187.0, 18203.0, 18179.0, 18184.0, 18188.0, 18175.0, 18189.0, 18183.0, 18178.0, 18173.0, 18172.0, 18169.0, 18165.0, 18172.0, 18150.0, 18183.0, 18203.0, 18180.0, 18135.0, 18083.0, 18054.0, 18062.0, 18087.0, 18109.0, 18117.0, 18152.0, 18184.0, 18193.0, 18189.0, 18192.0, 18196.0, 18208.0, 18225.0, 18253.0, 18221.0, 18202.0, 18207.0, 18200.0, 18199.0, 18188.0, 18170.0, 18153.0, 18163.0, 18176.0, 18195.0, 18177.0, 18178.0, 18179.0, 18189.0, 18187.0, 18192.0, 18199.0, 18216.0, 18212.0, 18200.0, 18194.0, 18189.0, 18197.0, 18198.0, 18193.0, 18188.0, 18192.0, 18174.0, 18204.0, 18224.0, 18203.0, 18219.0, 18202.0, 18189.0, 18147.0, 18113.0, 18104.0, 18140.0, 18128.0, 18129.0, 18148.0, 18165.0, 18170.0, 18153.0, 18160.0, 18185.0, 18204.0, 18204.0, 18202.0, 18199.0, 18186.0, 18196.0, 18209.0, 18207.0, 18207.0],
      "WindowWidth": [46708.0, 46607.0, 46610.0, 46651.0, 46672.0, 46648.0, 46656.0, 46642.0, 46643.0, 46612.0, 46596.0, 46599.0, 46638.0, 46625.0, 46577.0, 46565.0, 46548.0, 46535.0, 46578.0, 46560.0, 46542.0, 46522.0, 46557.0, 46583.0, 46637.0, 46632.0, 46637.0, 46623.0, 46610.0, 46610.0, 46522.0, 46727.0, 46671.0, 46624.0, 46582.0, 46541.0, 46536.0, 46518.0, 46508.0, 46550.0, 46524.0, 46519.0, 46498.0, 46485.0, 46502.0, 46512.0, 46551.0, 46549.0, 46534.0, 46521.0, 46540.0, 46576.0, 46572.0, 46592.0, 46615.0, 46626.0, 46590.0, 46563.0, 46561.0, 46542.0, 46522.0, 46538.0, 46554.0, 46561.0, 46553.0, 46580.0, 46607.0, 46616.0, 46613.0, 46576.0, 46590.0, 46588.0, 46593.0, 46576.0, 46595.0, 46604.0, 46603.0, 46584.0, 46546.0, 46526.0, 46535.0, 46572.0, 46556.0, 46548.0, 46557.0, 46627.0, 46655.0, 46651.0, 46586.0, 46562.0, 46570.0, 46584.0, 46594.0, 46599.0, 46601.0, 46623.0, 46631.0, 46619.0, 46610.0, 46575.0, 46582.0, 46611.0, 46627.0, 46622.0, 46565.0, 46580.0, 46637.0, 46669.0, 46639.0, 46582.0, 46516.0, 46557.0, 46582.0, 46573.0, 46521.0, 46468.0, 46518.0, 46540.0, 46558.0, 46570.0, 46578.0, 46556.0, 46542.0, 46559.0, 46573.0, 46607.0, 46650.0, 46631.0, 46648.0, 46637.0, 46619.0, 46587.0, 46596.0, 46574.0, 46609.0, 46631.0, 46615.0, 46585.0, 46558.0, 46569.0, 46553.0, 46560.0, 46514.0, 46646.0, 46706.0, 46589.0, 46475.0, 46242.0, 46118.0, 46128.0, 46238.0, 46333.0, 46403.0, 46467.0, 46531.0, 46590.0, 46624.0, 46627.0, 46644.0, 46656.0, 46757.0, 46778.0, 46776.0, 46699.0, 46675.0, 46657.0, 46631.0, 46584.0, 46541.0, 46515.0, 46550.0, 46586.0, 46591.0, 46577.0, 46566.0, 46615.0, 46599.0, 46622.0, 46639.0, 46657.0, 46685.0, 46706.0, 46672.0, 46641.0, 46626.0, 46670.0, 46668.0, 46662.0, 46633.0, 46586.0, 46623.0, 46649.0, 46712.0, 46672.0, 46710.0, 46657.0, 46559.0, 46422.0, 46317.0, 46316.0, 46370.0, 46409.0, 46434.0, 46461.0, 46501.0, 46518.0, 46533.0, 46575.0, 46584.0, 46649.0, 46637.0, 46645.0, 46620.0, 46621.0, 46603.0, 46616.0, 46666.0, 46715.0]
    },
    "slices": {}
  }
}