{
  "AcquisitionMatrixPE": 116,
  "AcquisitionNumber": 1,
  "AcquisitionTime": "15:00:50.910000",
  "BandwidthPerPixelPhaseEncode": 18.539,
  "BaseResolution": 116,
  "BodyPartExamined": "HEAD",
  "ConsistencyInfo": "N4_VD13D_LATEST_20130810",
  "ConversionSoftware": "dcm2niix",
  "ConversionSoftwareVersion": "v1.0.20190410  (JP2:OpenJPEG) (JP-LS:CharLS) GCC5.5.0",
  "DerivedVendorReportedEchoSpacing": 0.000930006,
  "DeviceSerialNumber": "66014",
  "DwellTime": 3e-06,
  "EchoTime": 0.03,
  "EchoTrainLength": 50,
  "EffectiveEchoSpacing": 0.000465003,
  "FlipAngle": 81,
  "ImageComments": "Unaliased_MB3_PE4",
  "ImageOrientationPatientDICOM": [0.999945, -0.00465458, 0.00940713, 0.00349048, 0.992746, 0.120179],
  "ImageType": [
    "ORIGINAL",
    "PRIMARY",
    "M",
    "MB",
    "ND",
    "MOSAIC"
],
  "ImagingFrequency": 123.261,
  "InPlanePhaseEncodingDirectionDICOM": "COL",
  "InstitutionAddress": "Yiheyuan_Road_5_Beijing_Haidian_CN_100871",
  "InstitutionName": "Peking_University",
  "InstitutionalDepartmentName": "Department",
  "MRAcquisitionType": "2D",
  "MagneticFieldStrength": 3,
  "Manufacturer": "Siemens",
  "ManufacturersModelName": "Prisma",
  "Modality": "MR",
  "MultibandAccelerationFactor": 3,
  "ParallelReductionFactorInPlane": 2,
  "PartialFourier": 0.875,
  "PatientPosition": "HFS",
  "PercentPhaseFOV": 100,
  "PhaseEncodingDirection": "j-",
  "PhaseEncodingSteps": 101,
  "PhaseResolution": 1,
  "PixelBandwidth": 1435,
  "ProcedureStepDescription": "Research_Projects_64CH",
  "ProtocolName": "mbep2d_bold_MB3_learn6",
  "PulseSequenceDetails": "%CustomerSeq%_cmrr_mbep2d_bold",
  "ReceiveCoilActiveElements": "HC1-7",
  "ReceiveCoilName": "HeadNeck_64",
  "ReconMatrixPE": 116,
  "RefLinesPE": 44,
  "RepetitionTime": 2,
  "SAR": 0.0653177,
  "ScanOptions": "PFP_FS",
  "ScanningSequence": "EP",
  "SequenceName": "epfid2d1_116",
  "SequenceVariant": "SK_SS",
  "SeriesDescription": "mbep2d_bold_MB3_learn6",
  "SeriesNumber": 11,
  "ShimSetting": [-3461, -2105, -1987, 428, -15, -242, 58, 27],
  "SliceThickness": 1.9,
  "SliceTiming": [0, 0.9075, 1.815, 0.7425, 1.65, 0.5775, 1.485, 0.4125, 1.32, 0.2475, 1.155, 0.0825, 0.99, 1.8975, 0.825, 1.7325, 0.66, 1.5675, 0.495, 1.4025, 0.33, 1.2375, 0.165, 1.0725, 0, 0.9075, 1.815, 0.7425, 1.65, 0.5775, 1.485, 0.4125, 1.32, 0.2475, 1.155, 0.0825, 0.99, 1.8975, 0.825, 1.7325, 0.66, 1.5675, 0.495, 1.4025, 0.33, 1.2375, 0.165, 1.0725, 0, 0.9075, 1.815, 0.7425, 1.65, 0.5775, 1.485, 0.4125, 1.32, 0.2475, 1.155, 0.0825, 0.99, 1.8975, 0.825, 1.7325, 0.66, 1.5675, 0.495, 1.4025, 0.33, 1.2375, 0.165, 1.0725],
  "SoftwareVersions": "syngo_MR_D13D",
  "SpacingBetweenSlices": 1.9,
  "StationName": "AWP66014",
  "TaskName": "updating",
  "TotalReadoutTime": 0.0534753,
  "TxRefAmp": 231.954,
  "WipMemBlock": "35dea95f-d42f-41af-9db0-08d4bff7b5d7||Sequence: vd13d/master r/0735857; Nov 19 2014 09:21:40 by eja",
  "dcmmeta_affine": [
    [-1.8964473009109497, 0.006619870197027922, 0.018806708976626396, 108.74653625488281],
    [0.008827658370137215, 1.8827943801879883, 0.22826433181762695, -102.7679443359375],
    [0.017841098830103874, -0.2279248982667923, 1.8861446380615234, -50.14541244506836],
    [0.0, 0.0, 0.0, 1.0]
],
  "dcmmeta_reorient_transform": [
    [0.0, -1.0, 0.0, 115.0],
    [1.0, 0.0, 0.0, 0.0],
    [0.0, 0.0, 1.0, 0.0],
    [0.0, 0.0, 0.0, 1.0]
],
  "dcmmeta_shape": [116, 116, 72, 218],
  "dcmmeta_slice_dim": 2,
  "dcmmeta_version": 0.6,
  "global": {
    "const": {
      "AcquisitionMatrix": [116, 0, 0, 116],
      "AngioFlag": "N",
      "BitsAllocated": 16,
      "BitsStored": 16,
      "BodyPartExamined": "HEAD",
      "Columns": 1044,
      "EchoNumbers": 1,
      "EchoTime": 30.0,
      "EchoTrainLength": 50,
      "FlipAngle": 81.0,
      "HighBit": 15,
      "ImageOrientationPatient": [0.99994491890984, -0.0046545833326, 0.00940712497988, 0.00349047700847, 0.99274615324514, 0.12017858289743],
      "ImagePositionPatient": [-992.53097359521, -983.27400224273, -190.39219940423],
      "ImageType": [
        "ORIGINAL",
        "PRIMARY",
        "M",
        "MB",
        "ND",
        "MOSAIC"
],
      "ImagedNucleus": "1H",
      "ImagingFrequency": 123.260587,
      "InPlanePhaseEncodingDirection": "COL",
      "LargestImagePixelValue": 65535,
      "MRAcquisitionType": "2D",
      "MagneticFieldStrength": 3.0,
      "Manufacturer": "SIEMENS",
      "ManufacturerModelName": "Prisma",
      "Modality": "MR",
      "NumberOfAverages": 1.0,
      "NumberOfPhaseEncodingSteps": 101,
      "PercentPhaseFieldOfView": 100.0,
      "PercentSampling": 100.0,
      "PerformedProcedureStepStartTime": "140236.613000",
      "PhotometricInterpretation": "MONOCHROME2",
      "PixelBandwidth": 1435.0,
      "PixelRepresentation": 0,
      "PixelSpacing": [1.8965517282486, 1.8965517282486],
      "ProtocolName": "mbep2d_bold_MB3_learn6",
      "RepetitionTime": 2000.0,
      "Rows": 1044,
      "SAR": 0.06531775276571,
      "SamplesPerPixel": 1,
      "ScanOptions": [
        "PFP",
        "FS"
],
      "ScanningSequence": "EP",
      "SequenceName": "epfid2d1_116",
      "SequenceVariant": [
        "SK",
        "SS"
],
      "SeriesDescription": "mbep2d_bold_MB3_learn6",
      "SeriesNumber": 11,
      "SeriesTime": "150104.926000",
      "SliceLocation": -61.049786746216,
      "SliceThickness": 1.8999999761581,
      "SmallestImagePixelValue": 0,
      "SoftwareVersions": "syngo MR D13D",
      "SpacingBetweenSlices": 1.8999999443453,
      "SpecificCharacterSet": "ISO_IR 100",
      "StudyID": "1",
      "StudyTime": "140236.536000",
      "TimeOfLastCalibration": ["123723.000000", "123723.000000"],
      "TransmitCoilName": "Body",
      "VariableFlipAngleFlag": "N",
      "WindowCenterWidthExplanation": "Algo1",
      "dBdt": 0.0},
    "slices": {}
  },
  "time": {
    "samples": {
      "AcquisitionNumber": [1, 2, 3, 4, 5, 6, 7, 8, 9, 10, 11, 12, 13, 14, 15, 16, 17, 18, 19, 20, 21, 22, 23, 24, 25, 26, 27, 28, 29, 30, 31, 32, 33, 34, 35, 36, 37, 38, 39, 40, 41, 42, 43, 44, 45, 46, 47, 48, 49, 50, 51, 52, 53, 54, 55, 56, 57, 58, 59, 60, 61, 62, 63, 64, 65, 66, 67, 68, 69, 70, 71, 72, 73, 74, 75, 76, 77, 78, 79, 80, 81, 82, 83, 84, 85, 86, 87, 88, 89, 90, 91, 92, 93, 94, 95, 96, 97, 98, 99, 100, 101, 102, 103, 104, 105, 106, 107, 108, 109, 110, 111, 112, 113, 114, 115, 116, 117, 118, 119, 120, 121, 122, 123, 124, 125, 126, 127, 128, 129, 130, 131, 132, 133, 134, 135, 136, 137, 138, 139, 140, 141, 142, 143, 144, 145, 146, 147, 148, 149, 150, 151, 152, 153, 154, 155, 156, 157, 158, 159, 160, 161, 162, 163, 164, 165, 166, 167, 168, 169, 170, 171, 172, 173, 174, 175, 176, 177, 178, 179, 180, 181, 182, 183, 184, 185, 186, 187, 188, 189, 190, 191, 192, 193, 194, 195, 196, 197, 198, 199, 200, 201, 202, 203, 204, 205, 206, 207, 208, 209, 210, 211, 212, 213, 214, 215, 216, 217, 218],
      "AcquisitionTime": ["150050.910000", "150052.910000", "150054.910000", "150056.910000", "150058.910000", "150100.910000", "150102.910000", "150104.910000", "150106.910000", "150108.910000", "150110.910000", "150112.910000", "150114.910000", "150116.910000", "150118.910000", "150120.910000", "150122.910000", "150124.910000", "150126.910000", "150128.910000", "150130.910000", "150132.910000", "150134.910000", "150136.910000", "150138.910000", "150140.910000", "150142.910000", "150144.910000", "150146.910000", "150148.910000", "150150.910000", "150152.910000", "150154.910000", "150156.910000", "150158.910000", "150200.910000", "150202.910000", "150204.910000", "150206.910000", "150208.910000", "150210.910000", "150212.910000", "150214.910000", "150216.910000", "150218.910000", "150220.910000", "150222.910000", "150224.910000", "150226.910000", "150228.910000", "150230.910000", "150232.910000", "150234.910000", "150236.910000", "150238.910000", "150240.910000", "150242.910000", "150244.910000", "150246.910000", "150248.910000", "150250.910000", "150252.910000", "150254.910000", "150256.910000", "150258.910000", "150300.910000", "150302.910000", "150304.910000", "150306.910000", "150308.910000", "150310.910000", "150312.910000", "150314.910000", "150316.910000", "150318.910000", "150320.910000", "150322.910000", "150324.910000", "150326.910000", "150328.910000", "150330.912500", "150332.912500", "150334.912500", "150336.912500", "150338.912500", "150340.912500", "150342.912500", "150344.912500", "150346.912500", "150348.912500", "150350.912500", "150352.912500", "150354.912500", "150356.912500", "150358.912500", "150400.912500", "150402.912500", "150404.912500", "150406.912500", "150408.912500", "150410.912500", "150412.912500", "150414.912500", "150416.912500", "150418.912500", "150420.912500", "150422.912500", "150424.912500", "150426.912500", "150428.912500", "150430.912500", "150432.912500", "150434.912500", "150436.912500", "150438.912500", "150440.912500", "150442.912500", "150444.912500", "150446.912500", "150448.912500", "150450.912500", "150452.912500", "150454.912500", "150456.912500", "150458.912500", "150500.912500", "150502.912500", "150504.912500", "150506.912500", "150508.912500", "150510.912500", "150512.912500", "150514.912500", "150516.912500", "150518.912500", "150520.912500", "150522.912500", "150524.912500", "150526.912500", "150528.912500", "150530.912500", "150532.912500", "150534.912500", "150536.912500", "150538.912500", "150540.912500", "150542.912500", "150544.912500", "150546.912500", "150548.912500", "150550.912500", "150552.912500", "150554.912500", "150556.912500", "150558.912500", "150600.912500", "150602.912500", "150604.912500", "150606.912500", "150608.912500", "150610.912500", "150612.912500", "150614.912500", "150616.912500", "150618.912500", "150620.912500", "150622.912500", "150624.912500", "150626.912500", "150628.912500", "150630.912500", "150632.912500", "150634.912500", "150636.912500", "150638.912500", "150640.912500", "150642.912500", "150644.912500", "150646.912500", "150648.912500", "150650.912500", "150652.912500", "150654.912500", "150656.912500", "150658.912500", "150700.912500", "150702.912500", "150704.912500", "150706.912500", "150708.912500", "150710.912500", "150712.912500", "150714.912500", "150716.912500", "150718.912500", "150720.912500", "150722.912500", "150724.912500", "150726.912500", "150728.912500", "150730.912500", "150732.912500", "150734.912500", "150736.912500", "150738.912500", "150740.912500", "150742.912500", "150744.912500", "150746.912500", "150748.912500", "150750.912500", "150752.912500", "150754.912500", "150756.912500", "150758.912500", "150800.912500", "150802.912500", "150804.912500"],
      "ContentTime": ["150104.933000", "150105.924000", "150106.924000", "150106.928000", "150107.926000", "150108.925000", "150108.930000", "150109.926000", "150110.925000", "150111.925000", "150113.426000", "150115.425000", "150117.425000", "150119.425000", "150121.425000", "150123.425000", "150125.426000", "150127.426000", "150129.426000", "150131.426000", "150133.425000", "150135.425000", "150137.425000", "150139.425000", "150141.425000", "150143.425000", "150145.425000", "150147.427000", "150149.426000", "150151.425000", "150153.425000", "150155.425000", "150157.425000", "150159.425000", "150201.427000", "150203.427000", "150205.426000", "150207.425000", "150209.425000", "150211.426000", "150213.425000", "150215.425000", "150217.426000", "150219.426000", "150221.426000", "150223.425000", "150225.425000", "150227.425000", "150229.425000", "150231.425000", "150233.425000", "150235.426000", "150237.426000", "150239.426000", "150241.426000", "150243.425000", "150245.425000", "150247.425000", "150249.425000", "150251.425000", "150253.426000", "150255.426000", "150257.426000", "150259.426000", "150301.425000", "150303.425000", "150305.425000", "150307.425000", "150309.425000", "150311.426000", "150313.426000", "150315.426000", "150317.426000", "150319.425000", "150321.425000", "150323.425000", "150325.425000", "150327.426000", "150329.426000", "150331.426000", "150333.426000", "150335.425000", "150337.425000", "150339.425000", "150341.425000", "150343.425000", "150345.426000", "150347.426000", "150349.425000", "150351.427000", "150353.425000", "150355.425000", "150357.425000", "150359.425000", "150401.425000", "150403.425000", "150405.425000", "150407.426000", "150409.426000", "150411.425000", "150413.425000", "150415.425000", "150417.426000", "150419.426000", "150421.425000", "150423.426000", "150425.426000", "150427.427000", "150429.426000", "150431.425000", "150433.425000", "150435.425000", "150437.426000", "150439.426000", "150441.426000", "150443.424000", "150445.425000", "150447.425000", "150449.425000", "150451.425000", "150453.425000", "150455.426000", "150457.426000", "150459.426000", "150501.426000", "150503.425000", "150505.425000", "150507.425000", "150509.425000", "150511.426000", "150513.426000", "150515.426000", "150517.426000", "150519.426000", "150521.425000", "150523.425000", "150525.424000", "150527.426000", "150529.426000", "150531.426000", "150533.426000", "150535.426000", "150537.426000", "150539.425000", "150541.425000", "150543.425000", "150545.426000", "150547.426000", "150549.426000", "150551.425000", "150553.425000", "150555.424000", "150557.425000", "150559.425000", "150601.425000", "150603.425000", "150605.426000", "150607.426000", "150609.426000", "150611.426000", "150613.425000", "150615.425000", "150617.425000", "150619.425000", "150621.425000", "150623.438000", "150625.426000", "150627.426000", "150629.426000", "150631.425000", "150633.425000", "150635.425000", "150637.425000", "150639.426000", "150641.426000", "150643.426000", "150645.426000", "150647.426000", "150649.425000", "150651.426000", "150653.425000", "150655.426000", "150657.426000", "150659.426000", "150701.426000", "150703.426000", "150705.425000", "150707.425000", "150709.425000", "150711.425000", "150713.425000", "150715.426000", "150717.426000", "150719.426000", "150721.425000", "150723.425000", "150725.426000", "150727.425000", "150729.425000", "150731.425000", "150733.426000", "150735.426000", "150737.426000", "150739.426000", "150741.424000", "150743.425000", "150745.425000", "150747.425000", "150749.426000", "150751.427000", "150753.426000", "150755.426000", "150757.425000", "150759.425000", "150801.424000", "150803.425000", "150805.425000", "150807.216000"],
      "InstanceCreationTime": ["150104.933000", "150105.924000", "150106.924000", "150106.928000", "150107.926000", "150108.925000", "150108.930000", "150109.926000", "150110.925000", "150111.925000", "150113.426000", "150115.425000", "150117.425000", "150119.425000", "150121.425000", "150123.425000", "150125.426000", "150127.426000", "150129.426000", "150131.426000", "150133.425000", "150135.425000", "150137.425000", "150139.425000", "150141.425000", "150143.425000", "150145.425000", "150147.427000", "150149.426000", "150151.425000", "150153.425000", "150155.425000", "150157.425000", "150159.425000", "150201.427000", "150203.427000", "150205.426000", "150207.425000", "150209.425000", "150211.426000", "150213.425000", "150215.425000", "150217.426000", "150219.426000", "150221.426000", "150223.425000", "150225.425000", "150227.425000", "150229.425000", "150231.425000", "150233.425000", "150235.426000", "150237.426000", "150239.426000", "150241.426000", "150243.425000", "150245.425000", "150247.425000", "150249.425000", "150251.425000", "150253.426000", "150255.426000", "150257.426000", "150259.426000", "150301.425000", "150303.425000", "150305.425000", "150307.425000", "150309.425000", "150311.426000", "150313.426000", "150315.426000", "150317.426000", "150319.425000", "150321.425000", "150323.425000", "150325.425000", "150327.426000", "150329.426000", "150331.426000", "150333.426000", "150335.425000", "150337.425000", "150339.425000", "150341.425000", "150343.425000", "150345.426000", "150347.426000", "150349.425000", "150351.427000", "150353.425000", "150355.425000", "150357.425000", "150359.425000", "150401.425000", "150403.425000", "150405.425000", "150407.426000", "150409.426000", "150411.425000", "150413.425000", "150415.425000", "150417.426000", "150419.426000", "150421.425000", "150423.426000", "150425.426000", "150427.427000", "150429.426000", "150431.425000", "150433.425000", "150435.425000", "150437.426000", "150439.426000", "150441.426000", "150443.424000", "150445.425000", "150447.425000", "150449.425000", "150451.425000", "150453.425000", "150455.426000", "150457.426000", "150459.426000", "150501.426000", "150503.425000", "150505.425000", "150507.425000", "150509.425000", "150511.426000", "150513.426000", "150515.426000", "150517.426000", "150519.426000", "150521.425000", "150523.425000", "150525.424000", "150527.426000", "150529.426000", "150531.426000", "150533.426000", "150535.426000", "150537.426000", "150539.425000", "150541.425000", "150543.425000", "150545.426000", "150547.426000", "150549.426000", "150551.425000", "150553.425000", "150555.424000", "150557.425000", "150559.425000", "150601.425000", "150603.425000", "150605.426000", "150607.426000", "150609.426000", "150611.426000", "150613.425000", "150615.425000", "150617.425000", "150619.425000", "150621.425000", "150623.438000", "150625.426000", "150627.426000", "150629.426000", "150631.425000", "150633.425000", "150635.425000", "150637.425000", "150639.426000", "150641.426000", "150643.426000", "150645.426000", "150647.426000", "150649.425000", "150651.426000", "150653.425000", "150655.426000", "150657.426000", "150659.426000", "150701.426000", "150703.426000", "150705.425000", "150707.425000", "150709.425000", "150711.425000", "150713.425000", "150715.426000", "150717.426000", "150719.426000", "150721.425000", "150723.425000", "150725.426000", "150727.425000", "150729.425000", "150731.425000", "150733.426000", "150735.426000", "150737.426000", "150739.426000", "150741.424000", "150743.425000", "150745.425000", "150747.425000", "150749.426000", "150751.427000", "150753.426000", "150755.426000", "150757.425000", "150759.425000", "150801.424000", "150803.425000", "150805.425000", "150807.216000"],
      "InstanceNumber": [1, 2, 3, 4, 5, 6, 7, 8, 9, 10, 11, 12, 13, 14, 15, 16, 17, 18, 19, 20, 21, 22, 23, 24, 25, 26, 27, 28, 29, 30, 31, 32, 33, 34, 35, 36, 37, 38, 39, 40, 41, 42, 43, 44, 45, 46, 47, 48, 49, 50, 51, 52, 53, 54, 55, 56, 57, 58, 59, 60, 61, 62, 63, 64, 65, 66, 67, 68, 69, 70, 71, 72, 73, 74, 75, 76, 77, 78, 79, 80, 81, 82, 83, 84, 85, 86, 87, 88, 89, 90, 91, 92, 93, 94, 95, 96, 97, 98, 99, 100, 101, 102, 103, 104, 105, 106, 107, 108, 109, 110, 111, 112, 113, 114, 115, 116, 117, 118, 119, 120, 121, 122, 123, 124, 125, 126, 127, 128, 129, 130, 131, 132, 133, 134, 135, 136, 137, 138, 139, 140, 141, 142, 143, 144, 145, 146, 147, 148, 149, 150, 151, 152, 153, 154, 155, 156, 157, 158, 159, 160, 161, 162, 163, 164, 165, 166, 167, 168, 169, 170, 171, 172, 173, 174, 175, 176, 177, 178, 179, 180, 181, 182, 183, 184, 185, 186, 187, 188, 189, 190, 191, 192, 193, 194, 195, 196, 197, 198, 199, 200, 201, 202, 203, 204, 205, 206, 207, 208, 209, 210, 211, 212, 213, 214, 215, 216, 217, 218],
      "WindowCenter": [18209.0, 18189.0, 18188.0, 18197.0, 18189.0, 18188.0, 18189.0, 18178.0, 18164.0, 18170.0, 18162.0, 18165.0, 18159.0, 18152.0, 18142.0, 18130.0, 18149.0, 18158.0, 18166.0, 18155.0, 18149.0, 18162.0, 18162.0, 18167.0, 18182.0, 18176.0, 18181.0, 18173.0, 18180.0, 18189.0, 18178.0, 18180.0, 18174.0, 18160.0, 18158.0, 18161.0, 18177.0, 18165.0, 18155.0, 18160.0, 18183.0, 18162.0, 18153.0, 18149.0, 18154.0, 18156.0, 18153.0, 18150.0, 18159.0, 18173.0, 18182.0, 18180.0, 18183.0, 18150.0, 18158.0, 18148.0, 18175.0, 18192.0, 18176.0, 18149.0, 18131.0, 18122.0, 18142.0, 18134.0, 18132.0, 18140.0, 18143.0, 18130.0, 18107.0, 18123.0, 18123.0, 18119.0, 18134.0, 18138.0, 18176.0, 18178.0, 18148.0, 18144.0, 18151.0, 18189.0, 18162.0, 18158.0, 18166.0, 18162.0, 18180.0, 18159.0, 18155.0, 18145.0, 18130.0, 18144.0, 18150.0, 18149.0, 18155.0, 18163.0, 18122.0, 18158.0, 18156.0, 18130.0, 18126.0, 18124.0, 18141.0, 18121.0, 18138.0, 18155.0, 18157.0, 18136.0, 18149.0, 18146.0, 18167.0, 18149.0, 18158.0, 18162.0, 18184.0, 18172.0, 18168.0, 18181.0, 18179.0, 18175.0, 18157.0, 18162.0, 18158.0, 18128.0, 18155.0, 18161.0, 18140.0, 18146.0, 18148.0, 18154.0, 18145.0, 18156.0, 18154.0, 18159.0, 18166.0, 18144.0, 18158.0, 18180.0, 18166.0, 18130.0, 18121.0, 18140.0, 18146.0, 18140.0, 18145.0, 18147.0, 18140.0, 18146.0, 18144.0, 18132.0, 18139.0, 18142.0, 18142.0, 18122.0, 18124.0, 18129.0, 18146.0, 18150.0, 18137.0, 18135.0, 18102.0, 18117.0, 18118.0, 18104.0, 18137.0, 18132.0, 18120.0, 18098.0, 18105.0, 18105.0, 18104.0, 18101.0, 18115.0, 18112.0, 18142.0, 18149.0, 18131.0, 18129.0, 18130.0, 18129.0, 18112.0, 18123.0, 18107.0, 18129.0, 18083.0, 18233.0, 18140.0, 18074.0, 18086.0, 18106.0, 18116.0, 18117.0, 18104.0, 18097.0, 18088.0, 18095.0, 18110.0, 18128.0, 18128.0, 18102.0, 18109.0, 18125.0, 18129.0, 18122.0, 18102.0, 18100.0, 18117.0, 18154.0, 18134.0, 18131.0, 18117.0, 18096.0, 18104.0, 18096.0, 18097.0, 18100.0, 18097.0, 18102.0, 18104.0, 18097.0],
      "WindowWidth": [46501.0, 46473.0, 46472.0, 46543.0, 46525.0, 46497.0, 46514.0, 46481.0, 46469.0, 46448.0, 46391.0, 46392.0, 46374.0, 46357.0, 46321.0, 46312.0, 46352.0, 46350.0, 46357.0, 46369.0, 46353.0, 46364.0, 46377.0, 46397.0, 46420.0, 46417.0, 46433.0, 46488.0, 46471.0, 46500.0, 46482.0, 46458.0, 46402.0, 46416.0, 46415.0, 46389.0, 46375.0, 46355.0, 46386.0, 46391.0, 46386.0, 46406.0, 46345.0, 46319.0, 46321.0, 46312.0, 46345.0, 46342.0, 46389.0, 46397.0, 46409.0, 46420.0, 46380.0, 46355.0, 46336.0, 46355.0, 46414.0, 46454.0, 46402.0, 46300.0, 46247.0, 46257.0, 46284.0, 46293.0, 46300.0, 46283.0, 46312.0, 46272.0, 46244.0, 46229.0, 46231.0, 46279.0, 46307.0, 46304.0, 46437.0, 46425.0, 46324.0, 46284.0, 46395.0, 46421.0, 46377.0, 46321.0, 46335.0, 46364.0, 46379.0, 46384.0, 46318.0, 46307.0, 46298.0, 46295.0, 46325.0, 46371.0, 46379.0, 46369.0, 46279.0, 46346.0, 46338.0, 46281.0, 46281.0, 46253.0, 46264.0, 46265.0, 46291.0, 46342.0, 46358.0, 46342.0, 46326.0, 46352.0, 46379.0, 46354.0, 46373.0, 46403.0, 46440.0, 46424.0, 46442.0, 46454.0, 46441.0, 46413.0, 46375.0, 46374.0, 46331.0, 46342.0, 46316.0, 46322.0, 46317.0, 46333.0, 46325.0, 46340.0, 46349.0, 46366.0, 46355.0, 46358.0, 46412.0, 46346.0, 46379.0, 46390.0, 46378.0, 46281.0, 46262.0, 46328.0, 46321.0, 46292.0, 46318.0, 46288.0, 46341.0, 46346.0, 46333.0, 46298.0, 46290.0, 46359.0, 46355.0, 46275.0, 46277.0, 46296.0, 46348.0, 46348.0, 46298.0, 46262.0, 46236.0, 46235.0, 46224.0, 46252.0, 46303.0, 46347.0, 46285.0, 46216.0, 46198.0, 46198.0, 46184.0, 46243.0, 46220.0, 46281.0, 46333.0, 46362.0, 46312.0, 46299.0, 46321.0, 46258.0, 46231.0, 46236.0, 46228.0, 46282.0, 46070.0, 46578.0, 46291.0, 46121.0, 46184.0, 46226.0, 46261.0, 46235.0, 46184.0, 46168.0, 46136.0, 46156.0, 46207.0, 46259.0, 46293.0, 46246.0, 46228.0, 46255.0, 46258.0, 46217.0, 46212.0, 46208.0, 46274.0, 46316.0, 46312.0, 46310.0, 46260.0, 46194.0, 46175.0, 46178.0, 46167.0, 46168.0, 46168.0, 46195.0, 46199.0, 46244.0]
    },
    "slices": {}
  }
}