{
  "AcquisitionMatrixPE": 116,
  "AcquisitionNumber": 1,
  "AcquisitionTime": "13:24:54.812500",
  "BandwidthPerPixelPhaseEncode": 18.539,
  "BaseResolution": 116,
  "BodyPartExamined": "HEAD",
  "ConsistencyInfo": "N4_VD13D_LATEST_20130810",
  "ConversionSoftware": "dcm2niix",
  "ConversionSoftwareVersion": "v1.0.20190410  (JP2:OpenJPEG) (JP-LS:CharLS) GCC5.5.0",
  "DerivedVendorReportedEchoSpacing": 0.000930006,
  "DeviceSerialNumber": "66014",
  "DwellTime": 3e-06,
  "EchoTime": 0.03,
  "EchoTrainLength": 50,
  "EffectiveEchoSpacing": 0.000465003,
  "FlipAngle": 81,
  "ImageComments": "Unaliased_MB3_PE4",
  "ImageOrientationPatientDICOM": [0.9999, -0.0120671, 0.0073202, 0.0122167, 0.99971, -0.0207451],
  "ImageType": [
    "ORIGINAL",
    "PRIMARY",
    "M",
    "MB",
    "ND",
    "MOSAIC"
],
  "ImagingFrequency": 123.261,
  "InPlanePhaseEncodingDirectionDICOM": "COL",
  "InstitutionAddress": "Yiheyuan_Road_5_Beijing_Haidian_CN_100871",
  "InstitutionName": "Peking_Univeristy",
  "InstitutionalDepartmentName": "Department",
  "MRAcquisitionType": "2D",
  "MagneticFieldStrength": 3,
  "Manufacturer": "Siemens",
  "ManufacturersModelName": "Prisma",
  "Modality": "MR",
  "MultibandAccelerationFactor": 3,
  "ParallelReductionFactorInPlane": 2,
  "PartialFourier": 0.875,
  "PatientPosition": "HFS",
  "PercentPhaseFOV": 100,
  "PhaseEncodingDirection": "j-",
  "PhaseEncodingSteps": 101,
  "PhaseResolution": 1,
  "PixelBandwidth": 1435,
  "ProcedureStepDescription": "Research_Projects_64CH",
  "ProtocolName": "mbep2d_bold_MB3_test2",
  "PulseSequenceDetails": "%CustomerSeq%_cmrr_mbep2d_bold",
  "ReceiveCoilActiveElements": "HC1-6",
  "ReceiveCoilName": "HeadNeck_64",
  "ReconMatrixPE": 116,
  "RefLinesPE": 44,
  "RepetitionTime": 2,
  "SAR": 0.052529,
  "ScanOptions": "PFP_FS",
  "ScanningSequence": "EP",
  "SequenceName": "epfid2d1_116",
  "SequenceVariant": "SK_SS",
  "SeriesDescription": "mbep2d_bold_MB3_test2",
  "SeriesNumber": 7,
  "ShimSetting": [-3438, -2138, -2033, 152, -52, -176, -54, -27],
  "SliceThickness": 1.9,
  "SliceTiming": [0, 0.9075, 1.815, 0.7425, 1.65, 0.5775, 1.485, 0.4125, 1.32, 0.2475, 1.155, 0.0825, 0.99, 1.8975, 0.825, 1.7325, 0.66, 1.5675, 0.495, 1.4025, 0.33, 1.2375, 0.165, 1.0725, 0, 0.9075, 1.815, 0.7425, 1.65, 0.5775, 1.485, 0.4125, 1.32, 0.2475, 1.155, 0.0825, 0.99, 1.8975, 0.825, 1.7325, 0.66, 1.5675, 0.495, 1.4025, 0.33, 1.2375, 0.165, 1.0725, 0, 0.9075, 1.815, 0.7425, 1.65, 0.5775, 1.485, 0.4125, 1.32, 0.2475, 1.155, 0.0825, 0.99, 1.8975, 0.825, 1.7325, 0.66, 1.5675, 0.495, 1.4025, 0.33, 1.2375, 0.165, 1.0725],
  "SoftwareVersions": "syngo_MR_D13D",
  "SpacingBetweenSlices": 1.9,
  "StationName": "AWP66014",
  "TaskName": "retrieval",
  "TotalReadoutTime": 0.0534753,
  "TxRefAmp": 213.544,
  "WipMemBlock": "e9ccd351-4b20-44c5-b322-685809159c6b||Sequence: vd13d/master r/0735857; Nov 19 2014 09:21:40 by eja",
  "dcmmeta_affine": [
    [-1.8963627815246582, 0.02316955476999283, 0.01342871692031622, 107.29542541503906],
    [0.022885872051119804, 1.8960020542144775, -0.03958175331354141, -106.71736907958984],
    [0.013883139938116074, 0.03934423252940178, 1.8995401859283447, -68.43170166015625],
    [0.0, 0.0, 0.0, 1.0]
],
  "dcmmeta_reorient_transform": [
    [0.0, -1.0, 0.0, 115.0],
    [1.0, 0.0, 0.0, 0.0],
    [0.0, 0.0, 1.0, 0.0],
    [0.0, 0.0, 0.0, 1.0]
],
  "dcmmeta_shape": [116, 116, 72, 289],
  "dcmmeta_slice_dim": 2,
  "dcmmeta_version": 0.6,
  "global": {
    "const": {
      "AcquisitionMatrix": [116, 0, 0, 116],
      "AngioFlag": "N",
      "BitsAllocated": 16,
      "BitsStored": 16,
      "BodyPartExamined": "HEAD",
      "Columns": 1044,
      "EchoNumbers": 1,
      "EchoTime": 30.0,
      "EchoTrainLength": 50,
      "FlipAngle": 81.0,
      "HighBit": 15,
      "ImageOrientationPatient": [0.99990039495735, -0.0120670965893, 0.00732020109267, 0.01221667443043, 0.9997101540056, -0.0207451402492],
      "ImagePositionPatient": [-1000.6229437553, -980.448755245, -52.093167933302],
      "ImageType": [
        "ORIGINAL",
        "PRIMARY",
        "M",
        "MB",
        "ND",
        "MOSAIC"
],
      "ImagedNucleus": "1H",
      "ImagingFrequency": 123.260642,
      "InPlanePhaseEncodingDirection": "COL",
      "LargestImagePixelValue": 65535,
      "MRAcquisitionType": "2D",
      "MagneticFieldStrength": 3.0,
      "Manufacturer": "SIEMENS",
      "ManufacturerModelName": "Prisma",
      "Modality": "MR",
      "NumberOfAverages": 1.0,
      "NumberOfPhaseEncodingSteps": 101,
      "PercentPhaseFieldOfView": 100.0,
      "PercentSampling": 100.0,
      "PerformedProcedureStepStartTime": "130301.253000",
      "PhotometricInterpretation": "MONOCHROME2",
      "PixelBandwidth": 1435.0,
      "PixelRepresentation": 0,
      "PixelSpacing": [1.8965517282486, 1.8965517282486],
      "ProtocolName": "mbep2d_bold_MB3_test2",
      "RepetitionTime": 2000.0,
      "Rows": 1044,
      "SAR": 0.05252904031511,
      "SamplesPerPixel": 1,
      "ScanOptions": [
        "PFP",
        "FS"
],
      "ScanningSequence": "EP",
      "SequenceName": "epfid2d1_116",
      "SequenceVariant": [
        "SK",
        "SS"
],
      "SeriesDescription": "mbep2d_bold_MB3_test2",
      "SeriesNumber": 7,
      "SeriesTime": "132507.360000",
      "SliceLocation": -65.433613792228,
      "SliceThickness": 1.8999999761581,
      "SmallestImagePixelValue": 0,
      "SoftwareVersions": "syngo MR D13D",
      "SpacingBetweenSlices": 1.9000000206417,
      "SpecificCharacterSet": "ISO_IR 100",
      "StudyID": "1",
      "StudyTime": "130301.189000",
      "TimeOfLastCalibration": ["123723.000000", "123723.000000"],
      "TransmitCoilName": "Body",
      "VariableFlipAngleFlag": "N",
      "WindowCenterWidthExplanation": "Algo1",
      "dBdt": 0.0},
    "slices": {}
  },
  "time": {
    "samples": {
      "AcquisitionNumber": [1, 2, 3, 4, 5, 6, 7, 8, 9, 10, 11, 12, 13, 14, 15, 16, 17, 18, 19, 20, 21, 22, 23, 24, 25, 26, 27, 28, 29, 30, 31, 32, 33, 34, 35, 36, 37, 38, 39, 40, 41, 42, 43, 44, 45, 46, 47, 48, 49, 50, 51, 52, 53, 54, 55, 56, 57, 58, 59, 60, 61, 62, 63, 64, 65, 66, 67, 68, 69, 70, 71, 72, 73, 74, 75, 76, 77, 78, 79, 80, 81, 82, 83, 84, 85, 86, 87, 88, 89, 90, 91, 92, 93, 94, 95, 96, 97, 98, 99, 100, 101, 102, 103, 104, 105, 106, 107, 108, 109, 110, 111, 112, 113, 114, 115, 116, 117, 118, 119, 120, 121, 122, 123, 124, 125, 126, 127, 128, 129, 130, 131, 132, 133, 134, 135, 136, 137, 138, 139, 140, 141, 142, 143, 144, 145, 146, 147, 148, 149, 150, 151, 152, 153, 154, 155, 156, 157, 158, 159, 160, 161, 162, 163, 164, 165, 166, 167, 168, 169, 170, 171, 172, 173, 174, 175, 176, 177, 178, 179, 180, 181, 182, 183, 184, 185, 186, 187, 188, 189, 190, 191, 192, 193, 194, 195, 196, 197, 198, 199, 200, 201, 202, 203, 204, 205, 206, 207, 208, 209, 210, 211, 212, 213, 214, 215, 216, 217, 218, 219, 220, 221, 222, 223, 224, 225, 226, 227, 228, 229, 230, 231, 232, 233, 234, 235, 236, 237, 238, 239, 240, 241, 242, 243, 244, 245, 246, 247, 248, 249, 250, 251, 252, 253, 254, 255, 256, 257, 258, 259, 260, 261, 262, 263, 264, 265, 266, 267, 268, 269, 270, 271, 272, 273, 274, 275, 276, 277, 278, 279, 280, 281, 282, 283, 284, 285, 286, 287, 288, 289],
      "AcquisitionTime": ["132454.812500", "132456.812500", "132458.812500", "132500.812500", "132502.812500", "132504.812500", "132506.812500", "132508.812500", "132510.812500", "132512.812500", "132514.812500", "132516.812500", "132518.812500", "132520.812500", "132522.812500", "132524.812500", "132526.812500", "132528.812500", "132530.812500", "132532.812500", "132534.812500", "132536.812500", "132538.812500", "132540.812500", "132542.812500", "132544.812500", "132546.812500", "132548.812500", "132550.812500", "132552.812500", "132554.812500", "132556.812500", "132558.812500", "132600.812500", "132602.812500", "132604.812500", "132606.812500", "132608.812500", "132610.812500", "132612.812500", "132614.812500", "132616.812500", "132618.812500", "132620.812500", "132622.812500", "132624.812500", "132626.812500", "132628.812500", "132630.812500", "132632.812500", "132634.812500", "132636.812500", "132638.812500", "132640.812500", "132642.812500", "132644.812500", "132646.812500", "132648.812500", "132650.812500", "132652.812500", "132654.812500", "132656.812500", "132658.812500", "132700.812500", "132702.812500", "132704.812500", "132706.812500", "132708.812500", "132710.812500", "132712.812500", "132714.812500", "132716.812500", "132718.812500", "132720.812500", "132722.812500", "132724.815000", "132726.815000", "132728.815000", "132730.815000", "132732.815000", "132734.815000", "132736.815000", "132738.815000", "132740.815000", "132742.815000", "132744.815000", "132746.815000", "132748.815000", "132750.815000", "132752.815000", "132754.815000", "132756.815000", "132758.815000", "132800.815000", "132802.815000", "132804.815000", "132806.815000", "132808.815000", "132810.815000", "132812.815000", "132814.815000", "132816.815000", "132818.815000", "132820.815000", "132822.815000", "132824.815000", "132826.815000", "132828.815000", "132830.815000", "132832.815000", "132834.815000", "132836.815000", "132838.815000", "132840.815000", "132842.815000", "132844.815000", "132846.815000", "132848.815000", "132850.815000", "132852.815000", "132854.815000", "132856.815000", "132858.815000", "132900.815000", "132902.815000", "132904.815000", "132906.815000", "132908.815000", "132910.815000", "132912.815000", "132914.815000", "132916.815000", "132918.815000", "132920.815000", "132922.815000", "132924.815000", "132926.815000", "132928.815000", "132930.815000", "132932.815000", "132934.815000", "132936.815000", "132938.815000", "132940.815000", "132942.815000", "132944.815000", "132946.815000", "132948.815000", "132950.815000", "132952.815000", "132954.815000", "132956.815000", "132958.815000", "133000.815000", "133002.815000", "133004.815000", "133006.815000", "133008.815000", "133010.815000", "133012.815000", "133014.815000", "133016.815000", "133018.815000", "133020.815000", "133022.815000", "133024.815000", "133026.815000", "133028.815000", "133030.815000", "133032.815000", "133034.815000", "133036.815000", "133038.815000", "133040.815000", "133042.815000", "133044.815000", "133046.815000", "133048.815000", "133050.815000", "133052.815000", "133054.815000", "133056.815000", "133058.815000", "133100.815000", "133102.815000", "133104.815000", "133106.815000", "133108.815000", "133110.815000", "133112.815000", "133114.815000", "133116.815000", "133118.815000", "133120.815000", "133122.815000", "133124.815000", "133126.815000", "133128.815000", "133130.815000", "133132.815000", "133134.815000", "133136.815000", "133138.815000", "133140.815000", "133142.815000", "133144.815000", "133146.815000", "133148.815000", "133150.815000", "133152.815000", "133154.815000", "133156.815000", "133158.815000", "133200.815000", "133202.815000", "133204.815000", "133206.815000", "133208.815000", "133210.815000", "133212.815000", "133214.815000", "133216.815000", "133218.815000", "133220.815000", "133222.815000", "133224.815000", "133226.815000", "133228.815000", "133230.815000", "133232.815000", "133234.815000", "133236.815000", "133238.815000", "133240.815000", "133242.815000", "133244.815000", "133246.815000", "133248.815000", "133250.815000", "133252.815000", "133254.815000", "133256.815000", "133258.815000", "133300.815000", "133302.815000", "133304.815000", "133306.815000", "133308.815000", "133310.815000", "133312.815000", "133314.815000", "133316.815000", "133318.815000", "133320.815000", "133322.815000", "133324.815000", "133326.815000", "133328.815000", "133330.815000", "133332.815000", "133334.815000", "133336.815000", "133338.815000", "133340.815000", "133342.815000", "133344.815000", "133346.815000", "133348.815000", "133350.815000", "133352.815000", "133354.815000", "133356.815000", "133358.815000", "133400.815000", "133402.815000", "133404.815000", "133406.815000", "133408.815000", "133410.815000", "133412.815000", "133414.815000", "133416.815000", "133418.815000", "133420.815000", "133422.815000", "133424.815000", "133426.815000", "133428.815000", "133430.815000"],
      "ContentTime": ["132507.366000", "132508.358000", "132508.363000", "132509.358000", "132510.358000", "132510.362000", "132511.360000", "132512.359000", "132513.860000", "132515.859000", "132517.859000", "132519.859000", "132521.859000", "132523.857000", "132525.859000", "132527.858000", "132529.860000", "132531.860000", "132533.859000", "132535.859000", "132537.859000", "132539.859000", "132541.859000", "132543.859000", "132545.860000", "132547.860000", "132549.860000", "132551.859000", "132553.859000", "132555.860000", "132557.859000", "132559.859000", "132601.859000", "132603.859000", "132605.861000", "132607.859000", "132609.859000", "132611.860000", "132613.859000", "132615.860000", "132617.858000", "132619.859000", "132621.860000", "132623.860000", "132625.859000", "132627.859000", "132629.859000", "132631.859000", "132633.859000", "132635.860000", "132637.859000", "132639.860000", "132641.860000", "132643.859000", "132645.859000", "132647.859000", "132649.860000", "132651.859000", "132653.859000", "132655.860000", "132657.860000", "132659.860000", "132701.859000", "132703.859000", "132705.860000", "132707.858000", "132709.859000", "132711.859000", "132713.860000", "132715.860000", "132717.859000", "132719.859000", "132721.859000", "132723.859000", "132725.859000", "132727.860000", "132729.860000", "132731.860000", "132733.860000", "132735.859000", "132737.858000", "132739.858000", "132741.859000", "132743.858000", "132745.858000", "132747.858000", "132749.859000", "132751.859000", "132753.858000", "132755.858000", "132757.857000", "132759.858000", "132801.858000", "132803.858000", "132805.859000", "132807.859000", "132809.859000", "132811.858000", "132813.858000", "132815.867000", "132817.858000", "132819.858000", "132821.858000", "132823.860000", "132825.859000", "132827.858000", "132829.858000", "132831.858000", "132833.858000", "132835.859000", "132837.859000", "132839.858000", "132841.859000", "132843.859000", "132845.858000", "132847.858000", "132849.858000", "132851.858000", "132853.858000", "132855.858000", "132857.860000", "132859.860000", "132901.859000", "132903.858000", "132905.858000", "132907.858000", "132909.858000", "132911.858000", "132913.858000", "132915.859000", "132917.859000", "132919.859000", "132921.859000", "132923.858000", "132925.858000", "132927.858000", "132929.858000", "132931.858000", "132933.859000", "132935.859000", "132937.858000", "132939.858000", "132941.858000", "132943.858000", "132945.858000", "132947.858000", "132949.858000", "132951.859000", "132953.859000", "132955.858000", "132957.858000", "132959.858000", "133001.858000", "133003.858000", "133005.858000", "133007.859000", "133009.859000", "133011.859000", "133013.858000", "133015.858000", "133017.858000", "133019.859000", "133021.858000", "133023.858000", "133025.859000", "133027.859000", "133029.859000", "133031.859000", "133033.859000", "133035.858000", "133037.858000", "133039.858000", "133041.858000", "133043.859000", "133045.860000", "133047.858000", "133049.858000", "133051.858000", "133053.858000", "133055.858000", "133057.858000", "133059.858000", "133101.859000", "133103.860000", "133105.858000", "133107.858000", "133109.858000", "133111.858000", "133113.858000", "133115.858000", "133117.859000", "133119.859000", "133121.859000", "133123.858000", "133125.858000", "133127.858000", "133129.858000", "133131.858000", "133133.858000", "133135.859000", "133137.859000", "133139.859000", "133141.858000", "133143.858000", "133145.859000", "133147.858000", "133149.858000", "133151.858000", "133153.859000", "133155.859000", "133157.858000", "133159.857000", "133201.858000", "133203.858000", "133205.858000", "133207.858000", "133209.858000", "133211.859000", "133213.859000", "133215.858000", "133217.858000", "133219.858000", "133221.858000", "133223.858000", "133225.858000", "133227.859000", "133229.859000", "133231.858000", "133233.858000", "133235.858000", "133237.858000", "133239.858000", "133241.858000", "133243.858000", "133245.859000", "133247.860000", "133249.858000", "133251.858000", "133253.858000", "133255.858000", "133257.858000", "133259.858000", "133301.858000", "133303.859000", "133305.859000", "133307.858000", "133309.858000", "133311.858000", "133313.858000", "133315.858000", "133317.858000", "133319.858000", "133321.859000", "133323.859000", "133325.859000", "133327.857000", "133329.858000", "133331.858000", "133333.858000", "133335.858000", "133337.858000", "133339.859000", "133341.859000", "133343.859000", "133345.859000", "133347.858000", "133349.858000", "133351.858000", "133353.858000", "133355.859000", "133357.860000", "133359.858000", "133401.858000", "133403.858000", "133405.858000", "133407.868000", "133409.858000", "133411.858000", "133413.860000", "133415.859000", "133417.858000", "133419.858000", "133421.858000", "133423.858000", "133425.858000", "133427.858000", "133429.859000", "133431.859000", "133433.476000"],
      "InstanceCreationTime": ["132507.366000", "132508.358000", "132508.363000", "132509.358000", "132510.358000", "132510.362000", "132511.360000", "132512.359000", "132513.860000", "132515.859000", "132517.859000", "132519.859000", "132521.859000", "132523.857000", "132525.859000", "132527.858000", "132529.860000", "132531.860000", "132533.859000", "132535.859000", "132537.859000", "132539.859000", "132541.859000", "132543.859000", "132545.860000", "132547.860000", "132549.860000", "132551.859000", "132553.859000", "132555.860000", "132557.859000", "132559.859000", "132601.859000", "132603.859000", "132605.861000", "132607.859000", "132609.859000", "132611.860000", "132613.859000", "132615.860000", "132617.858000", "132619.859000", "132621.860000", "132623.860000", "132625.859000", "132627.859000", "132629.859000", "132631.859000", "132633.859000", "132635.860000", "132637.859000", "132639.860000", "132641.860000", "132643.859000", "132645.859000", "132647.859000", "132649.860000", "132651.859000", "132653.859000", "132655.860000", "132657.860000", "132659.860000", "132701.859000", "132703.859000", "132705.860000", "132707.858000", "132709.859000", "132711.859000", "132713.860000", "132715.860000", "132717.859000", "132719.859000", "132721.859000", "132723.859000", "132725.859000", "132727.860000", "132729.860000", "132731.860000", "132733.860000", "132735.859000", "132737.858000", "132739.858000", "132741.859000", "132743.858000", "132745.858000", "132747.858000", "132749.859000", "132751.859000", "132753.858000", "132755.858000", "132757.857000", "132759.858000", "132801.858000", "132803.858000", "132805.859000", "132807.859000", "132809.859000", "132811.858000", "132813.858000", "132815.867000", "132817.858000", "132819.858000", "132821.858000", "132823.860000", "132825.859000", "132827.858000", "132829.858000", "132831.858000", "132833.858000", "132835.859000", "132837.859000", "132839.858000", "132841.859000", "132843.859000", "132845.858000", "132847.858000", "132849.858000", "132851.858000", "132853.858000", "132855.858000", "132857.860000", "132859.860000", "132901.859000", "132903.858000", "132905.858000", "132907.858000", "132909.858000", "132911.858000", "132913.858000", "132915.859000", "132917.859000", "132919.859000", "132921.859000", "132923.858000", "132925.858000", "132927.858000", "132929.858000", "132931.858000", "132933.859000", "132935.859000", "132937.858000", "132939.858000", "132941.858000", "132943.858000", "132945.858000", "132947.858000", "132949.858000", "132951.859000", "132953.859000", "132955.858000", "132957.858000", "132959.858000", "133001.858000", "133003.858000", "133005.858000", "133007.859000", "133009.859000", "133011.859000", "133013.858000", "133015.858000", "133017.858000", "133019.859000", "133021.858000", "133023.858000", "133025.859000", "133027.859000", "133029.859000", "133031.859000", "133033.859000", "133035.858000", "133037.858000", "133039.858000", "133041.858000", "133043.859000", "133045.860000", "133047.858000", "133049.858000", "133051.858000", "133053.858000", "133055.858000", "133057.858000", "133059.858000", "133101.859000", "133103.860000", "133105.858000", "133107.858000", "133109.858000", "133111.858000", "133113.858000", "133115.858000", "133117.859000", "133119.859000", "133121.859000", "133123.858000", "133125.858000", "133127.858000", "133129.858000", "133131.858000", "133133.858000", "133135.859000", "133137.859000", "133139.859000", "133141.858000", "133143.858000", "133145.859000", "133147.858000", "133149.858000", "133151.858000", "133153.859000", "133155.859000", "133157.858000", "133159.857000", "133201.858000", "133203.858000", "133205.858000", "133207.858000", "133209.858000", "133211.859000", "133213.859000", "133215.858000", "133217.858000", "133219.858000", "133221.858000", "133223.858000", "133225.858000", "133227.859000", "133229.859000", "133231.858000", "133233.858000", "133235.858000", "133237.858000", "133239.858000", "133241.858000", "133243.858000", "133245.859000", "133247.860000", "133249.858000", "133251.858000", "133253.858000", "133255.858000", "133257.858000", "133259.858000", "133301.858000", "133303.859000", "133305.859000", "133307.858000", "133309.858000", "133311.858000", "133313.858000", "133315.858000", "133317.858000", "133319.858000", "133321.859000", "133323.859000", "133325.859000", "133327.857000", "133329.858000", "133331.858000", "133333.858000", "133335.858000", "133337.858000", "133339.859000", "133341.859000", "133343.859000", "133345.859000", "133347.858000", "133349.858000", "133351.858000", "133353.858000", "133355.859000", "133357.860000", "133359.858000", "133401.858000", "133403.858000", "133405.858000", "133407.868000", "133409.858000", "133411.858000", "133413.860000", "133415.859000", "133417.858000", "133419.858000", "133421.858000", "133423.858000", "133425.858000", "133427.858000", "133429.859000", "133431.859000", "133433.476000"],
      "InstanceNumber": [1, 2, 3, 4, 5, 6, 7, 8, 9, 10, 11, 12, 13, 14, 15, 16, 17, 18, 19, 20, 21, 22, 23, 24, 25, 26, 27, 28, 29, 30, 31, 32, 33, 34, 35, 36, 37, 38, 39, 40, 41, 42, 43, 44, 45, 46, 47, 48, 49, 50, 51, 52, 53, 54, 55, 56, 57, 58, 59, 60, 61, 62, 63, 64, 65, 66, 67, 68, 69, 70, 71, 72, 73, 74, 75, 76, 77, 78, 79, 80, 81, 82, 83, 84, 85, 86, 87, 88, 89, 90, 91, 92, 93, 94, 95, 96, 97, 98, 99, 100, 101, 102, 103, 104, 105, 106, 107, 108, 109, 110, 111, 112, 113, 114, 115, 116, 117, 118, 119, 120, 121, 122, 123, 124, 125, 126, 127, 128, 129, 130, 131, 132, 133, 134, 135, 136, 137, 138, 139, 140, 141, 142, 143, 144, 145, 146, 147, 148, 149, 150, 151, 152, 153, 154, 155, 156, 157, 158, 159, 160, 161, 162, 163, 164, 165, 166, 167, 168, 169, 170, 171, 172, 173, 174, 175, 176, 177, 178, 179, 180, 181, 182, 183, 184, 185, 186, 187, 188, 189, 190, 191, 192, 193, 194, 195, 196, 197, 198, 199, 200, 201, 202, 203, 204, 205, 206, 207, 208, 209, 210, 211, 212, 213, 214, 215, 216, 217, 218, 219, 220, 221, 222, 223, 224, 225, 226, 227, 228, 229, 230, 231, 232, 233, 234, 235, 236, 237, 238, 239, 240, 241, 242, 243, 244, 245, 246, 247, 248, 249, 250, 251, 252, 253, 254, 255, 256, 257, 258, 259, 260, 261, 262, 263, 264, 265, 266, 267, 268, 269, 270, 271, 272, 273, 274, 275, 276, 277, 278, 279, 280, 281, 282, 283, 284, 285, 286, 287, 288, 289],
      "WindowCenter": [15721.0, 15730.0, 15731.0, 15734.0, 15744.0, 15737.0, 15746.0, 15741.0, 15737.0, 15748.0, 15742.0, 15732.0, 15723.0, 15713.0, 15727.0, 15728.0, 15728.0, 15726.0, 15724.0, 15735.0, 15710.0, 15724.0, 15721.0, 15716.0, 15718.0, 15708.0, 15734.0, 15740.0, 15732.0, 15729.0, 15724.0, 15729.0, 15722.0, 15740.0, 15724.0, 15729.0, 15737.0, 15714.0, 15714.0, 15714.0, 15731.0, 15722.0, 15715.0, 15721.0, 15711.0, 15726.0, 15704.0, 15719.0, 15726.0, 15721.0, 15712.0, 15720.0, 15722.0, 15728.0, 15730.0, 15712.0, 15725.0, 15727.0, 15707.0, 15728.0, 15722.0, 15742.0, 15726.0, 15732.0, 15711.0, 15727.0, 15733.0, 15722.0, 15725.0, 15731.0, 15722.0, 15728.0, 15729.0, 15728.0, 15741.0, 15728.0, 15754.0, 15747.0, 15734.0, 15723.0, 15721.0, 15739.0, 15746.0, 15741.0, 15746.0, 15738.0, 15718.0, 15729.0, 15738.0, 15730.0, 15722.0, 15722.0, 15736.0, 15741.0, 15730.0, 15726.0, 15730.0, 15746.0, 15737.0, 15723.0, 15736.0, 15725.0, 15742.0, 15733.0, 15743.0, 15744.0, 15727.0, 15742.0, 15731.0, 15732.0, 15730.0, 15738.0, 15734.0, 15740.0, 15736.0, 15743.0, 15744.0, 15739.0, 15742.0, 15741.0, 15739.0, 15739.0, 15729.0, 15734.0, 15732.0, 15744.0, 15739.0, 15736.0, 15727.0, 15739.0, 15744.0, 15745.0, 15742.0, 15742.0, 15747.0, 15727.0, 15737.0, 15748.0, 15747.0, 15733.0, 15745.0, 15727.0, 15718.0, 15729.0, 15733.0, 15723.0, 15738.0, 15758.0, 15741.0, 15727.0, 15730.0, 15747.0, 15753.0, 15738.0, 15726.0, 15749.0, 15756.0, 15760.0, 15750.0, 15754.0, 15741.0, 15740.0, 15747.0, 15741.0, 15743.0, 15746.0, 15746.0, 15731.0, 15748.0, 15739.0, 15746.0, 15744.0, 15756.0, 15733.0, 15740.0, 15748.0, 15743.0, 15762.0, 15757.0, 15740.0, 15744.0, 15751.0, 15727.0, 15730.0, 15759.0, 15762.0, 15745.0, 15754.0, 15741.0, 15747.0, 15740.0, 15753.0, 15752.0, 15748.0, 15753.0, 15738.0, 15742.0, 15719.0, 15737.0, 15735.0, 15750.0, 15735.0, 15737.0, 15740.0, 15746.0, 15742.0, 15734.0, 15742.0, 15728.0, 15731.0, 15765.0, 15752.0, 15744.0, 15763.0, 15742.0, 15748.0, 15740.0, 15745.0, 15746.0, 15732.0, 15750.0, 15746.0, 15764.0, 15763.0, 15740.0, 15759.0, 15765.0, 15763.0, 15773.0, 15761.0, 15760.0, 15764.0, 15747.0, 15754.0, 15738.0, 15744.0, 15735.0, 15735.0, 15762.0, 15755.0, 15756.0, 15755.0, 15753.0, 15769.0, 15764.0, 15756.0, 15774.0, 15769.0, 15749.0, 15748.0, 15765.0, 15770.0, 15763.0, 15754.0, 15764.0, 15751.0, 15752.0, 15760.0, 15748.0, 15750.0, 15758.0, 15777.0, 15785.0, 15757.0, 15764.0, 15754.0, 15755.0, 15754.0, 15759.0, 15773.0, 15782.0, 15792.0, 15772.0, 15757.0, 15772.0, 15761.0, 15786.0, 15762.0, 15751.0, 15764.0, 15765.0, 15773.0, 15762.0, 15749.0, 15763.0, 15763.0, 15770.0, 15758.0, 15764.0],
      "WindowWidth": [46252.0, 46148.0, 46149.0, 46112.0, 46134.0, 46185.0, 46192.0, 46162.0, 46201.0, 46234.0, 46132.0, 46057.0, 46064.0, 46069.0, 46065.0, 46025.0, 45999.0, 46080.0, 46079.0, 46060.0, 46122.0, 46093.0, 46048.0, 46058.0, 46074.0, 46148.0, 46141.0, 46065.0, 46112.0, 46139.0, 46134.0, 46137.0, 46200.0, 46215.0, 46203.0, 46165.0, 46130.0, 46179.0, 46178.0, 46109.0, 46028.0, 45995.0, 46016.0, 46037.0, 46097.0, 46122.0, 46103.0, 46101.0, 46108.0, 46117.0, 46150.0, 46183.0, 46102.0, 46109.0, 46112.0, 46111.0, 46147.0, 46107.0, 46089.0, 46096.0, 46160.0, 46149.0, 46135.0, 46100.0, 46122.0, 46163.0, 46128.0, 46131.0, 46173.0, 46138.0, 46118.0, 46164.0, 46164.0, 46257.0, 46349.0, 46340.0, 46251.0, 46111.0, 45952.0, 45944.0, 46010.0, 46065.0, 46070.0, 46054.0, 46060.0, 46148.0, 46143.0, 46122.0, 46104.0, 46152.0, 46198.0, 46214.0, 46237.0, 46173.0, 46110.0, 46161.0, 46151.0, 46180.0, 46267.0, 46254.0, 46234.0, 46283.0, 46244.0, 46195.0, 46178.0, 46216.0, 46188.0, 46159.0, 46152.0, 46113.0, 46164.0, 46184.0, 46153.0, 46145.0, 46157.0, 46191.0, 46258.0, 46238.0, 46172.0, 46159.0, 46161.0, 46227.0, 46233.0, 46167.0, 46125.0, 46161.0, 46212.0, 46251.0, 46231.0, 46185.0, 46150.0, 46193.0, 46220.0, 46206.0, 46207.0, 46176.0, 46142.0, 46139.0, 46110.0, 46056.0, 46040.0, 46094.0, 46101.0, 46164.0, 46180.0, 46172.0, 46130.0, 46144.0, 46132.0, 46161.0, 46150.0, 46137.0, 46076.0, 46036.0, 46000.0, 46059.0, 46131.0, 46094.0, 46113.0, 46119.0, 46134.0, 46174.0, 46166.0, 46213.0, 46256.0, 46203.0, 46177.0, 46222.0, 46274.0, 46266.0, 46204.0, 46242.0, 46197.0, 46154.0, 46187.0, 46248.0, 46325.0, 46339.0, 46224.0, 46131.0, 46095.0, 46073.0, 46150.0, 46221.0, 46258.0, 46245.0, 46232.0, 46267.0, 46256.0, 46178.0, 46201.0, 46277.0, 46277.0, 46165.0, 46087.0, 46021.0, 45971.0, 46021.0, 46102.0, 46169.0, 46207.0, 46209.0, 46141.0, 46133.0, 46084.0, 46052.0, 46059.0, 46010.0, 45974.0, 46113.0, 46207.0, 46182.0, 46107.0, 46057.0, 46028.0, 46111.0, 46131.0, 46067.0, 46083.0, 46113.0, 46127.0, 46152.0, 46166.0, 46164.0, 46133.0, 46215.0, 46248.0, 46289.0, 46255.0, 46164.0, 46124.0, 46154.0, 46111.0, 46049.0, 46008.0, 46028.0, 46090.0, 46250.0, 46244.0, 46171.0, 46174.0, 46228.0, 46240.0, 46250.0, 46259.0, 46238.0, 46185.0, 46141.0, 46100.0, 46098.0, 46140.0, 46169.0, 46166.0, 46143.0, 46111.0, 46115.0, 46141.0, 46162.0, 46153.0, 46207.0, 46188.0, 46135.0, 46115.0, 46189.0, 46289.0, 46266.0, 46184.0, 46158.0, 46163.0, 46148.0, 46142.0, 46097.0, 46147.0, 46174.0, 46144.0, 46138.0, 46117.0, 46018.0, 46090.0, 46124.0, 46016.0, 46013.0, 46032.0, 46142.0, 46178.0, 46125.0, 46050.0, 46107.0, 46153.0]
    },
    "slices": {}
  }
}