{
  "AcquisitionMatrixPE": 116,
  "AcquisitionNumber": 1,
  "AcquisitionTime": "13:59:7.080000",
  "BandwidthPerPixelPhaseEncode": 18.539,
  "BaseResolution": 116,
  "BodyPartExamined": "HEAD",
  "ConsistencyInfo": "N4_VD13D_LATEST_20130810",
  "ConversionSoftware": "dcm2niix",
  "ConversionSoftwareVersion": "v1.0.20190410  (JP2:OpenJPEG) (JP-LS:CharLS) GCC5.5.0",
  "DerivedVendorReportedEchoSpacing": 0.000930006,
  "DeviceSerialNumber": "66014",
  "DwellTime": 3e-06,
  "EchoTime": 0.03,
  "EchoTrainLength": 50,
  "EffectiveEchoSpacing": 0.000465003,
  "FlipAngle": 81,
  "ImageComments": "Unaliased_MB3_PE4",
  "ImageOrientationPatientDICOM": [0.9999, -0.0120671, 0.0073202, 0.0122167, 0.99971, -0.0207451],
  "ImageType": [
    "ORIGINAL",
    "PRIMARY",
    "M",
    "MB",
    "ND",
    "MOSAIC"
],
  "ImagingFrequency": 123.261,
  "InPlanePhaseEncodingDirectionDICOM": "COL",
  "InstitutionAddress": "Yiheyuan_Road_5_Beijing_Haidian_CN_100871",
  "InstitutionName": "Peking_Univeristy",
  "InstitutionalDepartmentName": "Department",
  "MRAcquisitionType": "2D",
  "MagneticFieldStrength": 3,
  "Manufacturer": "Siemens",
  "ManufacturersModelName": "Prisma",
  "Modality": "MR",
  "MultibandAccelerationFactor": 3,
  "ParallelReductionFactorInPlane": 2,
  "PartialFourier": 0.875,
  "PatientPosition": "HFS",
  "PercentPhaseFOV": 100,
  "PhaseEncodingDirection": "j-",
  "PhaseEncodingSteps": 101,
  "PhaseResolution": 1,
  "PixelBandwidth": 1435,
  "ProcedureStepDescription": "Research_Projects_64CH",
  "ProtocolName": "mbep2d_bold_MB3_loca3",
  "PulseSequenceDetails": "%CustomerSeq%_cmrr_mbep2d_bold",
  "ReceiveCoilActiveElements": "HC1-6",
  "ReceiveCoilName": "HeadNeck_64",
  "ReconMatrixPE": 116,
  "RefLinesPE": 44,
  "RepetitionTime": 2,
  "SAR": 0.0515486,
  "ScanOptions": "PFP_FS",
  "ScanningSequence": "EP",
  "SequenceName": "epfid2d1_116",
  "SequenceVariant": "SK_SS",
  "SeriesDescription": "mbep2d_bold_MB3_loca3",
  "SeriesNumber": 11,
  "ShimSetting": [-3438, -2138, -2033, 152, -52, -176, -54, -27],
  "SliceThickness": 1.9,
  "SliceTiming": [0, 0.9075, 1.815, 0.7425, 1.65, 0.5775, 1.485, 0.4125, 1.32, 0.2475, 1.155, 0.0825, 0.99, 1.8975, 0.825, 1.7325, 0.66, 1.5675, 0.495, 1.4025, 0.33, 1.2375, 0.165, 1.0725, 0, 0.9075, 1.815, 0.7425, 1.65, 0.5775, 1.485, 0.4125, 1.32, 0.2475, 1.155, 0.0825, 0.99, 1.8975, 0.825, 1.7325, 0.66, 1.5675, 0.495, 1.4025, 0.33, 1.2375, 0.165, 1.0725, 0, 0.9075, 1.815, 0.7425, 1.65, 0.5775, 1.485, 0.4125, 1.32, 0.2475, 1.155, 0.0825, 0.99, 1.8975, 0.825, 1.7325, 0.66, 1.5675, 0.495, 1.4025, 0.33, 1.2375, 0.165, 1.0725],
  "SoftwareVersions": "syngo_MR_D13D",
  "SpacingBetweenSlices": 1.9,
  "StationName": "AWP66014",
  "TaskName": "localizer",
  "TotalReadoutTime": 0.0534753,
  "TxRefAmp": 213.544,
  "WipMemBlock": "c7a1defe-d75a-47e2-b386-45cbd1f5dae3||Sequence: vd13d/master r/0735857; Nov 19 2014 09:21:40 by eja",
  "dcmmeta_affine": [
    [-1.8963627815246582, 0.02316955476999283, 0.01342871692031622, 107.29542541503906],
    [0.022885872051119804, 1.8960020542144775, -0.03958175331354141, -106.71736907958984],
    [0.013883139938116074, 0.03934423252940178, 1.8995401859283447, -68.43170166015625],
    [0.0, 0.0, 0.0, 1.0]
],
  "dcmmeta_reorient_transform": [
    [0.0, -1.0, 0.0, 115.0],
    [1.0, 0.0, 0.0, 0.0],
    [0.0, 0.0, 1.0, 0.0],
    [0.0, 0.0, 0.0, 1.0]
],
  "dcmmeta_shape": [116, 116, 72, 164],
  "dcmmeta_slice_dim": 2,
  "dcmmeta_version": 0.6,
  "global": {
    "const": {
      "AcquisitionMatrix": [116, 0, 0, 116],
      "AngioFlag": "N",
      "BitsAllocated": 16,
      "BitsStored": 16,
      "BodyPartExamined": "HEAD",
      "Columns": 1044,
      "EchoNumbers": 1,
      "EchoTime": 30.0,
      "EchoTrainLength": 50,
      "FlipAngle": 81.0,
      "HighBit": 15,
      "ImageOrientationPatient": [0.99990039495735, -0.0120670965893, 0.00732020109267, 0.01221667443043, 0.9997101540056, -0.0207451402492],
      "ImagePositionPatient": [-1000.6229437553, -980.448755245, -52.093167933302],
      "ImageType": [
        "ORIGINAL",
        "PRIMARY",
        "M",
        "MB",
        "ND",
        "MOSAIC"
],
      "ImagedNucleus": "1H",
      "ImagingFrequency": 123.260643,
      "InPlanePhaseEncodingDirection": "COL",
      "LargestImagePixelValue": 65535,
      "MRAcquisitionType": "2D",
      "MagneticFieldStrength": 3.0,
      "Manufacturer": "SIEMENS",
      "ManufacturerModelName": "Prisma",
      "Modality": "MR",
      "NumberOfAverages": 1.0,
      "NumberOfPhaseEncodingSteps": 101,
      "PercentPhaseFieldOfView": 100.0,
      "PercentSampling": 100.0,
      "PerformedProcedureStepStartTime": "130301.253000",
      "PhotometricInterpretation": "MONOCHROME2",
      "PixelBandwidth": 1435.0,
      "PixelRepresentation": 0,
      "PixelSpacing": [1.8965517282486, 1.8965517282486],
      "ProtocolName": "mbep2d_bold_MB3_loca3",
      "RepetitionTime": 2000.0,
      "Rows": 1044,
      "SAR": 0.05154855260493,
      "SamplesPerPixel": 1,
      "ScanOptions": [
        "PFP",
        "FS"
],
      "ScanningSequence": "EP",
      "SequenceName": "epfid2d1_116",
      "SequenceVariant": [
        "SK",
        "SS"
],
      "SeriesDescription": "mbep2d_bold_MB3_loca3",
      "SeriesNumber": 11,
      "SeriesTime": "135919.578000",
      "SliceLocation": -65.433613792228,
      "SliceThickness": 1.8999999761581,
      "SmallestImagePixelValue": 0,
      "SoftwareVersions": "syngo MR D13D",
      "SpacingBetweenSlices": 1.9000000206417,
      "SpecificCharacterSet": "ISO_IR 100",
      "StudyID": "1",
      "StudyTime": "130301.189000",
      "TimeOfLastCalibration": ["123723.000000", "123723.000000"],
      "TransmitCoilName": "Body",
      "VariableFlipAngleFlag": "N",
      "WindowCenterWidthExplanation": "Algo1",
      "dBdt": 0.0},
    "slices": {}
  },
  "time": {
    "samples": {
      "AcquisitionNumber": [1, 2, 3, 4, 5, 6, 7, 8, 9, 10, 11, 12, 13, 14, 15, 16, 17, 18, 19, 20, 21, 22, 23, 24, 25, 26, 27, 28, 29, 30, 31, 32, 33, 34, 35, 36, 37, 38, 39, 40, 41, 42, 43, 44, 45, 46, 47, 48, 49, 50, 51, 52, 53, 54, 55, 56, 57, 58, 59, 60, 61, 62, 63, 64, 65, 66, 67, 68, 69, 70, 71, 72, 73, 74, 75, 76, 77, 78, 79, 80, 81, 82, 83, 84, 85, 86, 87, 88, 89, 90, 91, 92, 93, 94, 95, 96, 97, 98, 99, 100, 101, 102, 103, 104, 105, 106, 107, 108, 109, 110, 111, 112, 113, 114, 115, 116, 117, 118, 119, 120, 121, 122, 123, 124, 125, 126, 127, 128, 129, 130, 131, 132, 133, 134, 135, 136, 137, 138, 139, 140, 141, 142, 143, 144, 145, 146, 147, 148, 149, 150, 151, 152, 153, 154, 155, 156, 157, 158, 159, 160, 161, 162, 163, 164],
      "AcquisitionTime": ["135907.080000", "135909.080000", "135911.080000", "135913.080000", "135915.080000", "135917.080000", "135919.080000", "135921.080000", "135923.080000", "135925.080000", "135927.080000", "135929.080000", "135931.080000", "135933.080000", "135935.080000", "135937.080000", "135939.080000", "135941.080000", "135943.080000", "135945.080000", "135947.080000", "135949.080000", "135951.080000", "135953.080000", "135955.080000", "135957.080000", "135959.080000", "140001.080000", "140003.080000", "140005.080000", "140007.080000", "140009.080000", "140011.080000", "140013.080000", "140015.080000", "140017.080000", "140019.080000", "140021.080000", "140023.080000", "140025.080000", "140027.080000", "140029.080000", "140031.080000", "140033.080000", "140035.080000", "140037.080000", "140039.080000", "140041.080000", "140043.080000", "140045.080000", "140047.080000", "140049.080000", "140051.080000", "140053.080000", "140055.080000", "140057.080000", "140059.080000", "140101.080000", "140103.080000", "140105.080000", "140107.080000", "140109.080000", "140111.080000", "140113.080000", "140115.080000", "140117.080000", "140119.080000", "140121.080000", "140123.080000", "140125.080000", "140127.080000", "140129.080000", "140131.080000", "140133.080000", "140135.080000", "140137.080000", "140139.080000", "140141.080000", "140143.080000", "140145.080000", "140147.080000", "140149.080000", "140151.080000", "140153.080000", "140155.080000", "140157.080000", "140159.080000", "140201.080000", "140203.080000", "140205.080000", "140207.080000", "140209.080000", "140211.080000", "140213.080000", "140215.080000", "140217.080000", "140219.080000", "140221.080000", "140223.080000", "140225.080000", "140227.080000", "140229.080000", "140231.080000", "140233.080000", "140235.080000", "140237.080000", "140239.080000", "140241.080000", "140243.080000", "140245.080000", "140247.080000", "140249.080000", "140251.080000", "140253.080000", "140255.080000", "140257.080000", "140259.080000", "140301.080000", "140303.080000", "140305.080000", "140307.080000", "140309.080000", "140311.080000", "140313.080000", "140315.080000", "140317.080000", "140319.080000", "140321.080000", "140323.080000", "140325.080000", "140327.080000", "140329.080000", "140331.080000", "140333.080000", "140335.080000", "140337.080000", "140339.080000", "140341.080000", "140343.080000", "140345.080000", "140347.080000", "140349.080000", "140351.080000", "140353.080000", "140355.080000", "140357.080000", "140359.080000", "140401.080000", "140403.080000", "140405.080000", "140407.080000", "140409.080000", "140411.080000", "140413.080000", "140415.080000", "140417.080000", "140419.080000", "140421.080000", "140423.080000", "140425.080000", "140427.080000", "140429.080000", "140431.080000", "140433.080000"],
      "ContentTime": ["135919.584000", "135920.577000", "135920.581000", "135921.578000", "135922.577000", "135922.582000", "135923.578000", "135924.578000", "135926.079000", "135928.079000", "135930.078000", "135932.078000", "135934.078000", "135936.079000", "135938.078000", "135940.078000", "135942.079000", "135944.078000", "135946.079000", "135948.078000", "135950.077000", "135952.079000", "135954.079000", "135956.078000", "135958.078000", "140000.078000", "140002.078000", "140004.078000", "140006.078000", "140008.077000", "140010.078000", "140012.078000", "140014.078000", "140016.078000", "140018.078000", "140020.077000", "140022.078000", "140024.078000", "140026.078000", "140028.078000", "140030.078000", "140032.078000", "140034.078000", "140036.079000", "140038.078000", "140040.078000", "140042.079000", "140044.078000", "140046.078000", "140048.078000", "140050.078000", "140052.078000", "140054.078000", "140056.078000", "140058.078000", "140100.078000", "140102.078000", "140104.078000", "140106.078000", "140108.079000", "140110.077000", "140112.078000", "140114.078000", "140116.079000", "140118.077000", "140120.078000", "140122.078000", "140124.078000", "140126.078000", "140128.079000", "140130.078000", "140132.078000", "140134.079000", "140136.077000", "140138.079000", "140140.078000", "140142.078000", "140144.078000", "140146.079000", "140148.078000", "140150.078000", "140152.078000", "140154.078000", "140156.078000", "140158.078000", "140200.078000", "140202.077000", "140204.078000", "140206.078000", "140208.078000", "140210.077000", "140212.078000", "140214.079000", "140216.078000", "140218.078000", "140220.079000", "140222.079000", "140224.078000", "140226.079000", "140228.077000", "140230.078000", "140232.098000", "140234.079000", "140236.079000", "140238.077000", "140240.078000", "140242.078000", "140244.078000", "140246.079000", "140248.078000", "140250.079000", "140252.078000", "140254.079000", "140256.078000", "140258.079000", "140300.076000", "140302.078000", "140304.078000", "140306.079000", "140308.078000", "140310.078000", "140312.079000", "140314.079000", "140316.078000", "140318.078000", "140320.078000", "140322.079000", "140324.078000", "140326.079000", "140328.079000", "140330.078000", "140332.079000", "140334.078000", "140336.079000", "140338.075000", "140340.078000", "140342.078000", "140344.078000", "140346.077000", "140348.078000", "140350.079000", "140352.078000", "140354.079000", "140356.086000", "140358.078000", "140400.078000", "140402.079000", "140404.078000", "140406.078000", "140408.078000", "140410.078000", "140412.078000", "140414.078000", "140416.078000", "140418.078000", "140420.078000", "140422.078000", "140424.078000", "140426.078000", "140428.078000", "140430.078000", "140432.078000", "140434.078000", "140435.817000"],
      "InstanceCreationTime": ["135919.584000", "135920.577000", "135920.581000", "135921.578000", "135922.577000", "135922.582000", "135923.578000", "135924.578000", "135926.079000", "135928.079000", "135930.078000", "135932.078000", "135934.078000", "135936.079000", "135938.078000", "135940.078000", "135942.079000", "135944.078000", "135946.079000", "135948.078000", "135950.077000", "135952.079000", "135954.079000", "135956.078000", "135958.078000", "140000.078000", "140002.078000", "140004.078000", "140006.078000", "140008.077000", "140010.078000", "140012.078000", "140014.078000", "140016.078000", "140018.078000", "140020.077000", "140022.078000", "140024.078000", "140026.078000", "140028.078000", "140030.078000", "140032.078000", "140034.078000", "140036.079000", "140038.078000", "140040.078000", "140042.079000", "140044.078000", "140046.078000", "140048.078000", "140050.078000", "140052.078000", "140054.078000", "140056.078000", "140058.078000", "140100.078000", "140102.078000", "140104.078000", "140106.078000", "140108.079000", "140110.077000", "140112.078000", "140114.078000", "140116.079000", "140118.077000", "140120.078000", "140122.078000", "140124.078000", "140126.078000", "140128.079000", "140130.078000", "140132.078000", "140134.079000", "140136.077000", "140138.079000", "140140.078000", "140142.078000", "140144.078000", "140146.079000", "140148.078000", "140150.078000", "140152.078000", "140154.078000", "140156.078000", "140158.078000", "140200.078000", "140202.077000", "140204.078000", "140206.078000", "140208.078000", "140210.077000", "140212.078000", "140214.079000", "140216.078000", "140218.078000", "140220.079000", "140222.079000", "140224.078000", "140226.079000", "140228.077000", "140230.078000", "140232.098000", "140234.079000", "140236.079000", "140238.077000", "140240.078000", "140242.078000", "140244.078000", "140246.079000", "140248.078000", "140250.079000", "140252.078000", "140254.079000", "140256.078000", "140258.079000", "140300.076000", "140302.078000", "140304.078000", "140306.079000", "140308.078000", "140310.078000", "140312.079000", "140314.079000", "140316.078000", "140318.078000", "140320.078000", "140322.079000", "140324.078000", "140326.079000", "140328.079000", "140330.078000", "140332.079000", "140334.078000", "140336.079000", "140338.075000", "140340.078000", "140342.078000", "140344.078000", "140346.077000", "140348.078000", "140350.079000", "140352.078000", "140354.079000", "140356.086000", "140358.078000", "140400.078000", "140402.079000", "140404.078000", "140406.078000", "140408.078000", "140410.078000", "140412.078000", "140414.078000", "140416.078000", "140418.078000", "140420.078000", "140422.078000", "140424.078000", "140426.078000", "140428.078000", "140430.078000", "140432.078000", "140434.078000", "140435.817000"],
      "InstanceNumber": [1, 2, 3, 4, 5, 6, 7, 8, 9, 10, 11, 12, 13, 14, 15, 16, 17, 18, 19, 20, 21, 22, 23, 24, 25, 26, 27, 28, 29, 30, 31, 32, 33, 34, 35, 36, 37, 38, 39, 40, 41, 42, 43, 44, 45, 46, 47, 48, 49, 50, 51, 52, 53, 54, 55, 56, 57, 58, 59, 60, 61, 62, 63, 64, 65, 66, 67, 68, 69, 70, 71, 72, 73, 74, 75, 76, 77, 78, 79, 80, 81, 82, 83, 84, 85, 86, 87, 88, 89, 90, 91, 92, 93, 94, 95, 96, 97, 98, 99, 100, 101, 102, 103, 104, 105, 106, 107, 108, 109, 110, 111, 112, 113, 114, 115, 116, 117, 118, 119, 120, 121, 122, 123, 124, 125, 126, 127, 128, 129, 130, 131, 132, 133, 134, 135, 136, 137, 138, 139, 140, 141, 142, 143, 144, 145, 146, 147, 148, 149, 150, 151, 152, 153, 154, 155, 156, 157, 158, 159, 160, 161, 162, 163, 164],
      "WindowCenter": [15878.0, 15858.0, 15875.0, 15841.0, 15863.0, 15856.0, 15849.0, 15852.0, 15869.0, 15848.0, 15853.0, 15849.0, 15856.0, 15847.0, 15839.0, 15842.0, 15845.0, 15841.0, 15848.0, 15819.0, 15820.0, 15830.0, 15832.0, 15841.0, 15827.0, 15856.0, 15826.0, 15855.0, 15843.0, 15859.0, 15851.0, 15828.0, 15836.0, 15832.0, 15837.0, 15843.0, 15837.0, 15837.0, 15820.0, 15810.0, 15830.0, 15815.0, 15832.0, 15813.0, 15843.0, 15841.0, 15825.0, 15831.0, 15824.0, 15822.0, 15829.0, 15845.0, 15864.0, 15840.0, 15833.0, 15821.0, 15833.0, 15839.0, 15838.0, 15863.0, 15865.0, 15867.0, 15862.0, 15841.0, 15841.0, 15844.0, 15846.0, 15838.0, 15838.0, 15841.0, 15867.0, 15854.0, 15838.0, 15843.0, 15836.0, 15842.0, 15844.0, 15852.0, 15846.0, 15847.0, 15845.0, 15836.0, 15843.0, 15845.0, 15851.0, 15863.0, 15848.0, 15853.0, 15843.0, 15839.0, 15826.0, 15824.0, 15846.0, 15855.0, 15844.0, 15854.0, 15848.0, 15857.0, 15858.0, 15863.0, 15869.0, 15862.0, 15845.0, 15861.0, 15849.0, 15850.0, 15862.0, 15852.0, 15846.0, 15848.0, 15857.0, 15867.0, 15871.0, 15860.0, 15873.0, 15855.0, 15848.0, 15841.0, 15852.0, 15854.0, 15868.0, 15867.0, 15858.0, 15882.0, 15863.0, 15838.0, 15855.0, 15833.0, 15837.0, 15840.0, 15843.0, 15852.0, 15845.0, 15841.0, 15856.0, 15836.0, 15852.0, 15844.0, 15831.0, 15846.0, 15855.0, 15861.0, 15855.0, 15846.0, 15821.0, 15844.0, 15854.0, 15873.0, 15879.0, 15860.0, 15849.0, 15861.0, 15867.0, 15860.0, 15866.0, 15864.0, 15855.0, 15869.0, 15864.0, 15853.0, 15836.0, 15840.0, 15854.0, 15847.0],
      "WindowWidth": [46265.0, 46233.0, 46234.0, 46219.0, 46181.0, 46150.0, 46143.0, 46174.0, 46146.0, 46156.0, 46160.0, 46158.0, 46136.0, 46170.0, 46190.0, 46248.0, 46250.0, 46218.0, 46115.0, 46120.0, 46188.0, 46168.0, 46102.0, 46055.0, 46059.0, 46095.0, 46126.0, 46068.0, 46088.0, 46140.0, 46106.0, 46045.0, 45986.0, 46065.0, 46069.0, 46018.0, 46052.0, 46053.0, 46079.0, 46114.0, 46128.0, 46198.0, 46169.0, 46127.0, 46099.0, 46098.0, 46151.0, 46170.0, 46164.0, 46162.0, 46169.0, 46195.0, 46130.0, 46097.0, 46090.0, 46065.0, 46064.0, 46070.0, 46137.0, 46143.0, 46144.0, 46107.0, 46129.0, 46194.0, 46286.0, 46235.0, 46141.0, 46124.0, 46164.0, 46286.0, 46185.0, 46040.0, 46015.0, 46004.0, 45999.0, 46031.0, 46089.0, 46106.0, 46048.0, 46076.0, 46075.0, 46120.0, 46178.0, 46197.0, 46240.0, 46194.0, 46075.0, 46028.0, 46074.0, 46054.0, 46014.0, 45972.0, 46045.0, 46041.0, 46007.0, 46003.0, 46078.0, 46124.0, 46163.0, 46169.0, 46200.0, 46234.0, 46168.0, 46142.0, 46162.0, 46203.0, 46209.0, 46106.0, 46035.0, 46106.0, 46168.0, 46202.0, 46121.0, 46073.0, 46004.0, 46072.0, 46158.0, 46166.0, 46122.0, 46135.0, 46188.0, 46226.0, 46165.0, 46159.0, 46158.0, 46162.0, 46041.0, 45995.0, 46013.0, 46068.0, 46057.0, 46054.0, 46047.0, 46019.0, 46043.0, 46135.0, 46106.0, 46061.0, 46052.0, 46035.0, 46042.0, 46141.0, 46149.0, 46086.0, 46068.0, 46101.0, 46204.0, 46205.0, 46102.0, 46100.0, 46119.0, 46089.0, 46108.0, 46129.0, 46106.0, 46159.0, 46163.0, 46189.0, 46184.0, 46161.0, 46092.0, 46003.0, 46016.0, 45996.0]
    },
    "slices": {}
  }
}