{
  "AcquisitionMatrixPE": 116,
  "AcquisitionNumber": 1,
  "AcquisitionTime": "17:57:41.972500",
  "BandwidthPerPixelPhaseEncode": 18.539,
  "BaseResolution": 116,
  "BodyPartExamined": "HEAD",
  "ConsistencyInfo": "N4_VD13D_LATEST_20130810",
  "ConversionSoftware": "dcm2niix",
  "ConversionSoftwareVersion": "v1.0.20190410  (JP2:OpenJPEG) (JP-LS:CharLS) GCC5.5.0",
  "DerivedVendorReportedEchoSpacing": 0.000930006,
  "DeviceSerialNumber": "66014",
  "DwellTime": 3e-06,
  "EchoTime": 0.03,
  "EchoTrainLength": 50,
  "EffectiveEchoSpacing": 0.000465003,
  "FlipAngle": 81,
  "ImageComments": "Unaliased_MB3_PE4",
  "ImageOrientationPatientDICOM": [0.999944, -0.0105498, 0.000108669, 0.0104717, 0.991183, -0.132089],
  "ImageType": [
    "ORIGINAL",
    "PRIMARY",
    "M",
    "MB",
    "ND",
    "MOSAIC"
],
  "ImagingFrequency": 123.261,
  "InPlanePhaseEncodingDirectionDICOM": "COL",
  "InstitutionAddress": "Yiheyuan_Road_5_Beijing_Haidian_CN_100871",
  "InstitutionName": "Peking_University",
  "InstitutionalDepartmentName": "Department",
  "MRAcquisitionType": "2D",
  "MagneticFieldStrength": 3,
  "Manufacturer": "Siemens",
  "ManufacturersModelName": "Prisma",
  "Modality": "MR",
  "MultibandAccelerationFactor": 3,
  "ParallelReductionFactorInPlane": 2,
  "PartialFourier": 0.875,
  "PatientPosition": "HFS",
  "PercentPhaseFOV": 100,
  "PhaseEncodingDirection": "j-",
  "PhaseEncodingSteps": 101,
  "PhaseResolution": 1,
  "PixelBandwidth": 1435,
  "ProcedureStepDescription": "Research_Projects_64CH",
  "ProtocolName": "mbep2d_bold_MB3_loca1",
  "PulseSequenceDetails": "%CustomerSeq%_cmrr_mbep2d_bold",
  "ReceiveCoilActiveElements": "HC1-7",
  "ReceiveCoilName": "HeadNeck_64",
  "ReconMatrixPE": 116,
  "RefLinesPE": 44,
  "RepetitionTime": 2,
  "SAR": 0.0539814,
  "ScanOptions": "PFP_FS",
  "ScanningSequence": "EP",
  "SequenceName": "epfid2d1_116",
  "SequenceVariant": "SK_SS",
  "SeriesDescription": "mbep2d_bold_MB3_loca1",
  "SeriesNumber": 9,
  "ShimSetting": [-3443, -2107, -1981, 355, 5, -259, -18, 12],
  "SliceThickness": 1.9,
  "SliceTiming": [0, 0.9075, 1.815, 0.7425, 1.65, 0.5775, 1.485, 0.4125, 1.32, 0.2475, 1.155, 0.0825, 0.99, 1.8975, 0.825, 1.7325, 0.66, 1.5675, 0.495, 1.4025, 0.33, 1.2375, 0.165, 1.0725, 0, 0.9075, 1.815, 0.7425, 1.65, 0.5775, 1.485, 0.4125, 1.32, 0.2475, 1.155, 0.0825, 0.99, 1.8975, 0.825, 1.7325, 0.66, 1.5675, 0.495, 1.4025, 0.33, 1.2375, 0.165, 1.0725, 0, 0.9075, 1.815, 0.7425, 1.65, 0.5775, 1.485, 0.4125, 1.32, 0.2475, 1.155, 0.0825, 0.99, 1.8975, 0.825, 1.7325, 0.66, 1.5675, 0.495, 1.4025, 0.33, 1.2375, 0.165, 1.0725],
  "SoftwareVersions": "syngo_MR_D13D",
  "SpacingBetweenSlices": 1.9,
  "StationName": "AWP66014",
  "TaskName": "localizer",
  "TotalReadoutTime": 0.0534753,
  "TxRefAmp": 239.867,
  "WipMemBlock": "e7bda71f-e6c8-4f9f-9225-6f1d9bc8742c||Sequence: vd13d/master r/0735857; Nov 19 2014 09:21:40 by eja",
  "dcmmeta_affine": [
    [-1.8964462280273438, 0.019860168918967247, -0.00244301650673151, 108.55986785888672],
    [0.020008262246847153, 1.8798290491104126, -0.2509564161300659, -94.84635162353516],
    [0.00020609657804016024, 0.2505127489566803, 1.8833520412445068, -77.80963897705078],
    [0.0, 0.0, 0.0, 1.0]
],
  "dcmmeta_reorient_transform": [
    [0.0, -1.0, 0.0, 115.0],
    [1.0, 0.0, 0.0, 0.0],
    [0.0, 0.0, 1.0, 0.0],
    [0.0, 0.0, 0.0, 1.0]
],
  "dcmmeta_shape": [116, 116, 72, 164],
  "dcmmeta_slice_dim": 2,
  "dcmmeta_version": 0.6,
  "global": {
    "const": {
      "AcquisitionMatrix": [116, 0, 0, 116],
      "AngioFlag": "N",
      "BitsAllocated": 16,
      "BitsStored": 16,
      "BodyPartExamined": "HEAD",
      "Columns": 1044,
      "EchoNumbers": 1,
      "EchoTime": 30.0,
      "EchoTrainLength": 50,
      "FlipAngle": 81.0,
      "HighBit": 15,
      "ImageOrientationPatient": [0.99994434329581, -0.0105498105068, 0.00010866910428, 0.01047172545541, 0.99118260790067, -0.1320885337991],
      "ImagePositionPatient": [-1000.0099262793, -984.2908584641, 67.141607011044],
      "ImageType": [
        "ORIGINAL",
        "PRIMARY",
        "M",
        "MB",
        "ND",
        "MOSAIC"
],
      "ImagedNucleus": "1H",
      "ImagingFrequency": 123.260603,
      "InPlanePhaseEncodingDirection": "COL",
      "LargestImagePixelValue": 65535,
      "MRAcquisitionType": "2D",
      "MagneticFieldStrength": 3.0,
      "Manufacturer": "SIEMENS",
      "ManufacturerModelName": "Prisma",
      "Modality": "MR",
      "NumberOfAverages": 1.0,
      "NumberOfPhaseEncodingSteps": 101,
      "PercentPhaseFieldOfView": 100.0,
      "PercentSampling": 100.0,
      "PerformedProcedureStepStartTime": "170952.860000",
      "PhotometricInterpretation": "MONOCHROME2",
      "PixelBandwidth": 1435.0,
      "PixelRepresentation": 0,
      "PixelSpacing": [1.8965517282486, 1.8965517282486],
      "ProtocolName": "mbep2d_bold_MB3_loca1",
      "RepetitionTime": 2000.0,
      "Rows": 1044,
      "SAR": 0.05398141034607,
      "SamplesPerPixel": 1,
      "ScanOptions": [
        "PFP",
        "FS"
],
      "ScanningSequence": "EP",
      "SequenceName": "epfid2d1_116",
      "SequenceVariant": [
        "SK",
        "SS"
],
      "SeriesDescription": "mbep2d_bold_MB3_loca1",
      "SeriesNumber": 9,
      "SeriesTime": "175756.905000",
      "SliceLocation": -64.739924461959,
      "SliceThickness": 1.8999999761581,
      "SmallestImagePixelValue": 0,
      "SoftwareVersions": "syngo MR D13D",
      "SpacingBetweenSlices": 1.9000000494591,
      "SpecificCharacterSet": "ISO_IR 100",
      "StudyID": "1",
      "StudyTime": "170952.781000",
      "TimeOfLastCalibration": ["123723.000000", "123723.000000"],
      "TransmitCoilName": "Body",
      "VariableFlipAngleFlag": "N",
      "WindowCenterWidthExplanation": "Algo1",
      "dBdt": 0.0},
    "slices": {}
  },
  "time": {
    "samples": {
      "AcquisitionNumber": [1, 2, 3, 4, 5, 6, 7, 8, 9, 10, 11, 12, 13, 14, 15, 16, 17, 18, 19, 20, 21, 22, 23, 24, 25, 26, 27, 28, 29, 30, 31, 32, 33, 34, 35, 36, 37, 38, 39, 40, 41, 42, 43, 44, 45, 46, 47, 48, 49, 50, 51, 52, 53, 54, 55, 56, 57, 58, 59, 60, 61, 62, 63, 64, 65, 66, 67, 68, 69, 70, 71, 72, 73, 74, 75, 76, 77, 78, 79, 80, 81, 82, 83, 84, 85, 86, 87, 88, 89, 90, 91, 92, 93, 94, 95, 96, 97, 98, 99, 100, 101, 102, 103, 104, 105, 106, 107, 108, 109, 110, 111, 112, 113, 114, 115, 116, 117, 118, 119, 120, 121, 122, 123, 124, 125, 126, 127, 128, 129, 130, 131, 132, 133, 134, 135, 136, 137, 138, 139, 140, 141, 142, 143, 144, 145, 146, 147, 148, 149, 150, 151, 152, 153, 154, 155, 156, 157, 158, 159, 160, 161, 162, 163, 164],
      "AcquisitionTime": ["175741.972500", "175743.972500", "175745.972500", "175747.972500", "175749.972500", "175751.972500", "175753.972500", "175755.972500", "175757.972500", "175759.972500", "175801.972500", "175803.972500", "175805.972500", "175807.972500", "175809.972500", "175811.972500", "175813.972500", "175815.972500", "175817.972500", "175819.972500", "175821.972500", "175823.972500", "175825.972500", "175827.972500", "175829.972500", "175831.972500", "175833.972500", "175835.972500", "175837.972500", "175839.972500", "175841.972500", "175843.972500", "175845.972500", "175847.972500", "175849.972500", "175851.972500", "175853.972500", "175855.972500", "175857.972500", "175859.972500", "175901.972500", "175903.972500", "175905.972500", "175907.972500", "175909.972500", "175911.972500", "175913.972500", "175915.972500", "175917.972500", "175919.972500", "175921.972500", "175923.972500", "175925.972500", "175927.972500", "175929.972500", "175931.972500", "175933.972500", "175935.972500", "175937.972500", "175939.972500", "175941.972500", "175943.972500", "175945.972500", "175947.972500", "175949.972500", "175951.972500", "175953.972500", "175955.972500", "175957.972500", "175959.972500", "180001.972500", "180003.972500", "180005.972500", "180007.972500", "180009.972500", "180011.972500", "180013.972500", "180015.972500", "180017.972500", "180019.972500", "180021.972500", "180023.972500", "180025.972500", "180027.972500", "180029.972500", "180031.972500", "180033.972500", "180035.972500", "180037.972500", "180039.972500", "180041.972500", "180043.972500", "180045.972500", "180047.972500", "180049.972500", "180051.972500", "180053.972500", "180055.972500", "180057.972500", "180059.972500", "180101.972500", "180103.972500", "180105.972500", "180107.972500", "180109.972500", "180111.972500", "180113.972500", "180115.972500", "180117.972500", "180119.972500", "180121.972500", "180123.972500", "180125.972500", "180127.972500", "180129.972500", "180131.972500", "180133.972500", "180135.972500", "180137.972500", "180139.972500", "180141.972500", "180143.972500", "180145.972500", "180147.972500", "180149.972500", "180151.972500", "180153.972500", "180155.972500", "180157.972500", "180159.972500", "180201.972500", "180203.972500", "180205.972500", "180207.972500", "180209.972500", "180211.972500", "180213.972500", "180215.972500", "180217.972500", "180219.972500", "180221.972500", "180223.972500", "180225.972500", "180227.972500", "180229.972500", "180231.972500", "180233.972500", "180235.972500", "180237.972500", "180239.972500", "180241.972500", "180243.972500", "180245.972500", "180247.972500", "180249.972500", "180251.972500", "180253.972500", "180255.972500", "180257.972500", "180259.972500", "180301.972500", "180303.972500", "180305.972500", "180307.972500"],
      "ContentTime": ["175756.910000", "175757.903000", "175758.903000", "175758.907000", "175759.905000", "175800.905000", "175800.909000", "175801.903000", "175802.903000", "175803.905000", "175804.904000", "175806.905000", "175808.906000", "175810.905000", "175812.904000", "175814.904000", "175816.904000", "175818.905000", "175820.905000", "175822.905000", "175824.905000", "175826.905000", "175828.906000", "175830.905000", "175832.904000", "175834.905000", "175836.905000", "175838.905000", "175840.906000", "175842.905000", "175844.905000", "175846.903000", "175848.904000", "175850.904000", "175852.905000", "175854.905000", "175856.905000", "175858.906000", "175900.905000", "175902.905000", "175904.905000", "175906.903000", "175908.904000", "175910.906000", "175912.905000", "175914.905000", "175916.905000", "175918.905000", "175920.905000", "175922.904000", "175924.904000", "175926.904000", "175928.905000", "175930.904000", "175932.905000", "175934.905000", "175936.905000", "175938.905000", "175940.904000", "175942.904000", "175944.905000", "175946.905000", "175948.905000", "175950.906000", "175952.905000", "175954.905000", "175956.905000", "175958.904000", "180000.904000", "180002.905000", "180004.905000", "180006.905000", "180008.905000", "180010.905000", "180012.905000", "180014.905000", "180016.904000", "180018.904000", "180020.905000", "180022.906000", "180024.905000", "180026.905000", "180028.905000", "180030.905000", "180032.902000", "180034.904000", "180036.905000", "180038.905000", "180040.917000", "180042.905000", "180044.905000", "180046.905000", "180048.905000", "180050.904000", "180052.904000", "180054.906000", "180056.905000", "180058.905000", "180100.905000", "180102.905000", "180104.905000", "180106.905000", "180108.904000", "180110.904000", "180112.905000", "180114.905000", "180116.906000", "180118.905000", "180120.905000", "180122.905000", "180124.905000", "180126.904000", "180128.904000", "180130.905000", "180132.906000", "180134.905000", "180136.905000", "180138.905000", "180140.905000", "180142.904000", "180144.904000", "180146.905000", "180148.905000", "180150.905000", "180152.903000", "180154.905000", "180156.904000", "180158.905000", "180200.905000", "180202.904000", "180204.906000", "180206.904000", "180208.906000", "180210.905000", "180212.905000", "180214.905000", "180216.905000", "180218.905000", "180220.904000", "180222.905000", "180224.905000", "180226.905000", "180228.906000", "180230.905000", "180232.905000", "180234.905000", "180236.904000", "180238.904000", "180240.905000", "180242.905000", "180244.905000", "180246.905000", "180248.905000", "180250.906000", "180252.904000", "180254.904000", "180256.905000", "180258.905000", "180300.905000", "180302.905000", "180304.906000", "180306.905000", "180308.905000", "180310.708000"],
      "InstanceCreationTime": ["175756.910000", "175757.903000", "175758.903000", "175758.907000", "175759.905000", "175800.905000", "175800.909000", "175801.903000", "175802.903000", "175803.905000", "175804.904000", "175806.905000", "175808.906000", "175810.905000", "175812.904000", "175814.904000", "175816.904000", "175818.905000", "175820.905000", "175822.905000", "175824.905000", "175826.905000", "175828.906000", "175830.905000", "175832.904000", "175834.905000", "175836.905000", "175838.905000", "175840.906000", "175842.905000", "175844.905000", "175846.903000", "175848.904000", "175850.904000", "175852.905000", "175854.905000", "175856.905000", "175858.906000", "175900.905000", "175902.905000", "175904.905000", "175906.903000", "175908.904000", "175910.906000", "175912.905000", "175914.905000", "175916.905000", "175918.905000", "175920.905000", "175922.904000", "175924.904000", "175926.904000", "175928.905000", "175930.904000", "175932.905000", "175934.905000", "175936.905000", "175938.905000", "175940.904000", "175942.904000", "175944.905000", "175946.905000", "175948.905000", "175950.906000", "175952.905000", "175954.905000", "175956.905000", "175958.904000", "180000.904000", "180002.905000", "180004.905000", "180006.905000", "180008.905000", "180010.905000", "180012.905000", "180014.905000", "180016.904000", "180018.904000", "180020.905000", "180022.906000", "180024.905000", "180026.905000", "180028.905000", "180030.905000", "180032.902000", "180034.904000", "180036.905000", "180038.905000", "180040.917000", "180042.905000", "180044.905000", "180046.905000", "180048.905000", "180050.904000", "180052.904000", "180054.906000", "180056.905000", "180058.905000", "180100.905000", "180102.905000", "180104.905000", "180106.905000", "180108.904000", "180110.904000", "180112.905000", "180114.905000", "180116.906000", "180118.905000", "180120.905000", "180122.905000", "180124.905000", "180126.904000", "180128.904000", "180130.905000", "180132.906000", "180134.905000", "180136.905000", "180138.905000", "180140.905000", "180142.904000", "180144.904000", "180146.905000", "180148.905000", "180150.905000", "180152.903000", "180154.905000", "180156.904000", "180158.905000", "180200.905000", "180202.904000", "180204.906000", "180206.904000", "180208.906000", "180210.905000", "180212.905000", "180214.905000", "180216.905000", "180218.905000", "180220.904000", "180222.905000", "180224.905000", "180226.905000", "180228.906000", "180230.905000", "180232.905000", "180234.905000", "180236.904000", "180238.904000", "180240.905000", "180242.905000", "180244.905000", "180246.905000", "180248.905000", "180250.906000", "180252.904000", "180254.904000", "180256.905000", "180258.905000", "180300.905000", "180302.905000", "180304.906000", "180306.905000", "180308.905000", "180310.708000"],
      "InstanceNumber": [1, 2, 3, 4, 5, 6, 7, 8, 9, 10, 11, 12, 13, 14, 15, 16, 17, 18, 19, 20, 21, 22, 23, 24, 25, 26, 27, 28, 29, 30, 31, 32, 33, 34, 35, 36, 37, 38, 39, 40, 41, 42, 43, 44, 45, 46, 47, 48, 49, 50, 51, 52, 53, 54, 55, 56, 57, 58, 59, 60, 61, 62, 63, 64, 65, 66, 67, 68, 69, 70, 71, 72, 73, 74, 75, 76, 77, 78, 79, 80, 81, 82, 83, 84, 85, 86, 87, 88, 89, 90, 91, 92, 93, 94, 95, 96, 97, 98, 99, 100, 101, 102, 103, 104, 105, 106, 107, 108, 109, 110, 111, 112, 113, 114, 115, 116, 117, 118, 119, 120, 121, 122, 123, 124, 125, 126, 127, 128, 129, 130, 131, 132, 133, 134, 135, 136, 137, 138, 139, 140, 141, 142, 143, 144, 145, 146, 147, 148, 149, 150, 151, 152, 153, 154, 155, 156, 157, 158, 159, 160, 161, 162, 163, 164],
      "WindowCenter": [19187.0, 19112.0, 19103.0, 19101.0, 19105.0, 19096.0, 19085.0, 19093.0, 19113.0, 19096.0, 19078.0, 19054.0, 19061.0, 19063.0, 19044.0, 19015.0, 19024.0, 19036.0, 19045.0, 19023.0, 19006.0, 19019.0, 19050.0, 19062.0, 19078.0, 19031.0, 19020.0, 19010.0, 19014.0, 19047.0, 19053.0, 19036.0, 19026.0, 19043.0, 19087.0, 19079.0, 19077.0, 19030.0, 19010.0, 18996.0, 19028.0, 19049.0, 19070.0, 19022.0, 19037.0, 19043.0, 19081.0, 19045.0, 19039.0, 19036.0, 19102.0, 19087.0, 19059.0, 19026.0, 19018.0, 19020.0, 19022.0, 19031.0, 19065.0, 19053.0, 19048.0, 19057.0, 19050.0, 19031.0, 19030.0, 19031.0, 19093.0, 19105.0, 19065.0, 19043.0, 19000.0, 18998.0, 19060.0, 19021.0, 19010.0, 18992.0, 18998.0, 18966.0, 18982.0, 18998.0, 19020.0, 19034.0, 19052.0, 19052.0, 19023.0, 19027.0, 19026.0, 19055.0, 19133.0, 19135.0, 19107.0, 19076.0, 19048.0, 19033.0, 19055.0, 19074.0, 19114.0, 19084.0, 19131.0, 19088.0, 19104.0, 19115.0, 19122.0, 19118.0, 19109.0, 19106.0, 19110.0, 19058.0, 19053.0, 19137.0, 19101.0, 19064.0, 19054.0, 19038.0, 19056.0, 19023.0, 19001.0, 19007.0, 19030.0, 19061.0, 19089.0, 19092.0, 19040.0, 19040.0, 19065.0, 19100.0, 19079.0, 19064.0, 19060.0, 19032.0, 19077.0, 19106.0, 19092.0, 19072.0, 19060.0, 19100.0, 19116.0, 19130.0, 19098.0, 19055.0, 19054.0, 19057.0, 19078.0, 19080.0, 19079.0, 19090.0, 19083.0, 19077.0, 19054.0, 19021.0, 19039.0, 19062.0, 19117.0, 19084.0, 19053.0, 19044.0, 19052.0, 19057.0, 19093.0, 19142.0, 19095.0, 19058.0, 19033.0, 19031.0],
      "WindowWidth": [47924.0, 47824.0, 47826.0, 47823.0, 47826.0, 47853.0, 47870.0, 47863.0, 47924.0, 47887.0, 47770.0, 47729.0, 47702.0, 47737.0, 47664.0, 47622.0, 47627.0, 47708.0, 47653.0, 47579.0, 47569.0, 47613.0, 47717.0, 47770.0, 47771.0, 47642.0, 47590.0, 47570.0, 47621.0, 47702.0, 47717.0, 47658.0, 47604.0, 47690.0, 47836.0, 47817.0, 47769.0, 47618.0, 47583.0, 47597.0, 47631.0, 47715.0, 47695.0, 47601.0, 47590.0, 47640.0, 47738.0, 47736.0, 47684.0, 47684.0, 47868.0, 47845.0, 47707.0, 47603.0, 47577.0, 47543.0, 47569.0, 47680.0, 47726.0, 47679.0, 47701.0, 47707.0, 47656.0, 47607.0, 47584.0, 47634.0, 47793.0, 47868.0, 47734.0, 47625.0, 47527.0, 47549.0, 47792.0, 47668.0, 47627.0, 47555.0, 47454.0, 47388.0, 47446.0, 47552.0, 47580.0, 47611.0, 47659.0, 47634.0, 47590.0, 47581.0, 47570.0, 47745.0, 47889.0, 47925.0, 47820.0, 47667.0, 47583.0, 47642.0, 47752.0, 47787.0, 47804.0, 47794.0, 47851.0, 47805.0, 47879.0, 47910.0, 47903.0, 47888.0, 47870.0, 47869.0, 47858.0, 47635.0, 47704.0, 47947.0, 47780.0, 47699.0, 47645.0, 47566.0, 47602.0, 47473.0, 47410.0, 47390.0, 47503.0, 47663.0, 47799.0, 47730.0, 47636.0, 47627.0, 47738.0, 47784.0, 47721.0, 47629.0, 47605.0, 47644.0, 47757.0, 47858.0, 47775.0, 47715.0, 47721.0, 47807.0, 47805.0, 47850.0, 47733.0, 47646.0, 47647.0, 47661.0, 47700.0, 47663.0, 47698.0, 47703.0, 47690.0, 47683.0, 47621.0, 47600.0, 47601.0, 47710.0, 47819.0, 47724.0, 47703.0, 47673.0, 47704.0, 47755.0, 47827.0, 47869.0, 47730.0, 47633.0, 47583.0, 47513.0]
    },
    "slices": {}
  }
}