{
  "AcquisitionMatrixPE": 116,
  "AcquisitionNumber": 1,
  "AcquisitionTime": "18:19:14.670000",
  "BandwidthPerPixelPhaseEncode": 18.539,
  "BaseResolution": 116,
  "BodyPartExamined": "HEAD",
  "ConsistencyInfo": "N4_VD13D_LATEST_20130810",
  "ConversionSoftware": "dcm2niix",
  "ConversionSoftwareVersion": "v1.0.20190410  (JP2:OpenJPEG) (JP-LS:CharLS) GCC5.5.0",
  "DerivedVendorReportedEchoSpacing": 0.000930006,
  "DeviceSerialNumber": "66014",
  "DwellTime": 3e-06,
  "EchoTime": 0.03,
  "EchoTrainLength": 50,
  "EffectiveEchoSpacing": 0.000465003,
  "FlipAngle": 81,
  "ImageComments": "Unaliased_MB3_PE4",
  "ImageOrientationPatientDICOM": [0.999612, -0.024001, 0.0141511, 0.02443, 0.999222, -0.0309624],
  "ImageType": [
    "ORIGINAL",
    "PRIMARY",
    "M",
    "MB",
    "ND",
    "MOSAIC"
],
  "ImagingFrequency": 123.261,
  "InPlanePhaseEncodingDirectionDICOM": "COL",
  "InstitutionAddress": "Yiheyuan_Road_5_Beijing_Haidian_CN_100871",
  "InstitutionName": "Peking_Univeristy",
  "InstitutionalDepartmentName": "Department",
  "MRAcquisitionType": "2D",
  "MagneticFieldStrength": 3,
  "Manufacturer": "Siemens",
  "ManufacturersModelName": "Prisma",
  "Modality": "MR",
  "MultibandAccelerationFactor": 3,
  "ParallelReductionFactorInPlane": 2,
  "PartialFourier": 0.875,
  "PatientPosition": "HFS",
  "PercentPhaseFOV": 100,
  "PhaseEncodingDirection": "j-",
  "PhaseEncodingSteps": 101,
  "PhaseResolution": 1,
  "PixelBandwidth": 1435,
  "ProcedureStepDescription": "Research_Projects_64CH",
  "ProtocolName": "mbep2d_bold_MB3_loca3",
  "PulseSequenceDetails": "%CustomerSeq%_cmrr_mbep2d_bold",
  "ReceiveCoilActiveElements": "HC1-6",
  "ReceiveCoilName": "HeadNeck_64",
  "ReconMatrixPE": 116,
  "RefLinesPE": 44,
  "RepetitionTime": 2,
  "SAR": 0.0510233,
  "ScanOptions": "PFP_FS",
  "ScanningSequence": "EP",
  "SequenceName": "epfid2d1_116",
  "SequenceVariant": "SK_SS",
  "SeriesDescription": "mbep2d_bold_MB3_loca3",
  "SeriesNumber": 11,
  "ShimSetting": [-3447, -2105, -1965, 411, -8, -196, 4, -11],
  "SliceThickness": 1.9,
  "SliceTiming": [0, 0.9075, 1.8125, 0.7425, 1.6475, 0.5775, 1.4825, 0.4125, 1.32, 0.2475, 1.155, 0.0825, 0.99, 1.895, 0.825, 1.73, 0.66, 1.565, 0.495, 1.4025, 0.33, 1.2375, 0.165, 1.0725, 0, 0.9075, 1.8125, 0.7425, 1.6475, 0.5775, 1.4825, 0.4125, 1.32, 0.2475, 1.155, 0.0825, 0.99, 1.895, 0.825, 1.73, 0.66, 1.565, 0.495, 1.4025, 0.33, 1.2375, 0.165, 1.0725, 0, 0.9075, 1.8125, 0.7425, 1.6475, 0.5775, 1.4825, 0.4125, 1.32, 0.2475, 1.155, 0.0825, 0.99, 1.895, 0.825, 1.73, 0.66, 1.565, 0.495, 1.4025, 0.33, 1.2375, 0.165, 1.0725],
  "SoftwareVersions": "syngo_MR_D13D",
  "SpacingBetweenSlices": 1.9,
  "StationName": "AWP66014",
  "TaskName": "localizer",
  "TotalReadoutTime": 0.0534753,
  "TxRefAmp": 213.525,
  "WipMemBlock": "152081b3-5ab2-4ddf-bdb4-4418be1b6ce6||Sequence: vd13d/master r/0735857; Nov 19 2014 09:21:40 by eja",
  "dcmmeta_affine": [
    [-1.8958154916763306, 0.0463327132165432, 0.025454184040427208, 105.71771240234375],
    [0.04551916569471359, 1.8950761556625366, -0.059462543576955795, -99.50531768798828],
    [0.02683825045824051, 0.058721765875816345, 1.898898720741272, -72.18922424316406],
    [0.0, 0.0, 0.0, 1.0]
],
  "dcmmeta_reorient_transform": [
    [0.0, -1.0, 0.0, 115.0],
    [1.0, 0.0, 0.0, 0.0],
    [0.0, 0.0, 1.0, 0.0],
    [0.0, 0.0, 0.0, 1.0]
],
  "dcmmeta_shape": [116, 116, 72, 164],
  "dcmmeta_slice_dim": 2,
  "dcmmeta_version": 0.6,
  "global": {
    "const": {
      "AcquisitionMatrix": [116, 0, 0, 116],
      "AngioFlag": "N",
      "BitsAllocated": 16,
      "BitsStored": 16,
      "BodyPartExamined": "HEAD",
      "Columns": 1044,
      "EchoNumbers": 1,
      "EchoTime": 30.0,
      "EchoTrainLength": 50,
      "FlipAngle": 81.0,
      "HighBit": 15,
      "ImageOrientationPatient": [0.99961177378486, -0.0240010148914, 0.01415107751601, 0.02442997638478, 0.99922195081297, -0.0309623847169],
      "ImagePositionPatient": [-1012.2027190997, -976.62285959059, -50.642267260873],
      "ImageType": [
        "ORIGINAL",
        "PRIMARY",
        "M",
        "MB",
        "ND",
        "MOSAIC"
],
      "ImagedNucleus": "1H",
      "ImagingFrequency": 123.260584,
      "InPlanePhaseEncodingDirection": "COL",
      "LargestImagePixelValue": 65535,
      "MRAcquisitionType": "2D",
      "MagneticFieldStrength": 3.0,
      "Manufacturer": "SIEMENS",
      "ManufacturerModelName": "Prisma",
      "Modality": "MR",
      "NumberOfAverages": 1.0,
      "NumberOfPhaseEncodingSteps": 101,
      "PercentPhaseFieldOfView": 100.0,
      "PercentSampling": 100.0,
      "PerformedProcedureStepStartTime": "171451.006000",
      "PhotometricInterpretation": "MONOCHROME2",
      "PixelBandwidth": 1435.0,
      "PixelRepresentation": 0,
      "PixelSpacing": [1.8965517282486, 1.8965517282486],
      "ProtocolName": "mbep2d_bold_MB3_loca3",
      "RepetitionTime": 2000.0,
      "Rows": 1044,
      "SAR": 0.05102326654986,
      "SamplesPerPixel": 1,
      "ScanOptions": [
        "PFP",
        "FS"
],
      "ScanningSequence": "EP",
      "SequenceName": "epfid2d1_116",
      "SequenceVariant": [
        "SK",
        "SS"
],
      "SeriesDescription": "mbep2d_bold_MB3_loca3",
      "SeriesNumber": 11,
      "SeriesTime": "181926.588000",
      "SliceLocation": -67.616957886605,
      "SliceThickness": 1.8999999761581,
      "SmallestImagePixelValue": 0,
      "SoftwareVersions": "syngo MR D13D",
      "SpacingBetweenSlices": 1.8999999975449,
      "SpecificCharacterSet": "ISO_IR 100",
      "StudyID": "1",
      "StudyTime": "171450.883000",
      "TimeOfLastCalibration": ["123723.000000", "123723.000000"],
      "TransmitCoilName": "Body",
      "VariableFlipAngleFlag": "N",
      "WindowCenterWidthExplanation": "Algo1",
      "dBdt": 0.0},
    "slices": {}
  },
  "time": {
    "samples": {
      "AcquisitionNumber": [1, 2, 3, 4, 5, 6, 7, 8, 9, 10, 11, 12, 13, 14, 15, 16, 17, 18, 19, 20, 21, 22, 23, 24, 25, 26, 27, 28, 29, 30, 31, 32, 33, 34, 35, 36, 37, 38, 39, 40, 41, 42, 43, 44, 45, 46, 47, 48, 49, 50, 51, 52, 53, 54, 55, 56, 57, 58, 59, 60, 61, 62, 63, 64, 65, 66, 67, 68, 69, 70, 71, 72, 73, 74, 75, 76, 77, 78, 79, 80, 81, 82, 83, 84, 85, 86, 87, 88, 89, 90, 91, 92, 93, 94, 95, 96, 97, 98, 99, 100, 101, 102, 103, 104, 105, 106, 107, 108, 109, 110, 111, 112, 113, 114, 115, 116, 117, 118, 119, 120, 121, 122, 123, 124, 125, 126, 127, 128, 129, 130, 131, 132, 133, 134, 135, 136, 137, 138, 139, 140, 141, 142, 143, 144, 145, 146, 147, 148, 149, 150, 151, 152, 153, 154, 155, 156, 157, 158, 159, 160, 161, 162, 163, 164],
      "AcquisitionTime": ["181914.670000", "181916.670000", "181918.670000", "181920.670000", "181922.670000", "181924.670000", "181926.670000", "181928.670000", "181930.670000", "181932.670000", "181934.670000", "181936.670000", "181938.670000", "181940.670000", "181942.670000", "181944.670000", "181946.670000", "181948.670000", "181950.670000", "181952.670000", "181954.670000", "181956.670000", "181958.670000", "182000.670000", "182002.670000", "182004.670000", "182006.670000", "182008.670000", "182010.670000", "182012.670000", "182014.670000", "182016.670000", "182018.670000", "182020.670000", "182022.670000", "182024.670000", "182026.670000", "182028.670000", "182030.670000", "182032.670000", "182034.670000", "182036.670000", "182038.670000", "182040.670000", "182042.670000", "182044.670000", "182046.670000", "182048.670000", "182050.670000", "182052.670000", "182054.670000", "182056.670000", "182058.670000", "182100.670000", "182102.670000", "182104.670000", "182106.670000", "182108.670000", "182110.670000", "182112.670000", "182114.670000", "182116.670000", "182118.670000", "182120.670000", "182122.670000", "182124.670000", "182126.670000", "182128.670000", "182130.670000", "182132.670000", "182134.670000", "182136.670000", "182138.670000", "182140.670000", "182142.670000", "182144.670000", "182146.670000", "182148.670000", "182150.670000", "182152.670000", "182154.670000", "182156.670000", "182158.670000", "182200.670000", "182202.670000", "182204.670000", "182206.670000", "182208.670000", "182210.670000", "182212.670000", "182214.670000", "182216.670000", "182218.670000", "182220.670000", "182222.670000", "182224.670000", "182226.670000", "182228.670000", "182230.670000", "182232.670000", "182234.670000", "182236.670000", "182238.670000", "182240.670000", "182242.670000", "182244.670000", "182246.670000", "182248.670000", "182250.670000", "182252.670000", "182254.670000", "182256.670000", "182258.670000", "182300.670000", "182302.670000", "182304.670000", "182306.670000", "182308.670000", "182310.670000", "182312.670000", "182314.670000", "182316.670000", "182318.670000", "182320.670000", "182322.670000", "182324.670000", "182326.670000", "182328.670000", "182330.670000", "182332.670000", "182334.670000", "182336.670000", "182338.670000", "182340.670000", "182342.670000", "182344.670000", "182346.670000", "182348.670000", "182350.670000", "182352.670000", "182354.670000", "182356.670000", "182358.670000", "182400.670000", "182402.670000", "182404.670000", "182406.670000", "182408.670000", "182410.670000", "182412.670000", "182414.670000", "182416.670000", "182418.670000", "182420.670000", "182422.670000", "182424.670000", "182426.670000", "182428.670000", "182430.670000", "182432.670000", "182434.670000", "182436.670000", "182438.670000", "182440.670000"],
      "ContentTime": ["181926.594000", "181927.583000", "181928.582000", "181928.587000", "181929.583000", "181929.587000", "181930.583000", "181932.084000", "181934.084000", "181936.085000", "181938.085000", "181940.085000", "181942.085000", "181944.084000", "181946.084000", "181948.084000", "181950.084000", "181952.084000", "181954.085000", "181956.085000", "181958.084000", "182000.084000", "182002.084000", "182004.084000", "182006.084000", "182008.084000", "182010.084000", "182012.085000", "182014.085000", "182016.084000", "182018.084000", "182020.083000", "182022.084000", "182024.084000", "182026.084000", "182028.085000", "182030.085000", "182032.083000", "182034.085000", "182036.084000", "182038.084000", "182040.084000", "182042.084000", "182044.084000", "182046.085000", "182048.085000", "182050.085000", "182052.084000", "182054.084000", "182056.084000", "182058.084000", "182100.084000", "182102.084000", "182104.085000", "182106.085000", "182108.084000", "182110.084000", "182112.084000", "182114.084000", "182116.084000", "182118.084000", "182120.085000", "182122.085000", "182124.085000", "182126.084000", "182128.084000", "182130.084000", "182132.084000", "182134.084000", "182136.084000", "182138.085000", "182140.085000", "182142.084000", "182144.084000", "182146.084000", "182148.084000", "182150.084000", "182152.084000", "182154.084000", "182156.085000", "182158.085000", "182200.084000", "182202.084000", "182204.084000", "182206.085000", "182208.087000", "182210.087000", "182212.086000", "182214.085000", "182216.085000", "182218.084000", "182220.084000", "182222.084000", "182224.084000", "182226.084000", "182228.084000", "182230.086000", "182232.085000", "182234.085000", "182236.083000", "182238.084000", "182240.084000", "182242.084000", "182244.084000", "182246.084000", "182248.085000", "182250.085000", "182252.084000", "182254.083000", "182256.085000", "182258.084000", "182300.084000", "182302.084000", "182304.084000", "182306.085000", "182308.085000", "182310.084000", "182312.084000", "182314.084000", "182316.084000", "182318.085000", "182320.084000", "182322.084000", "182324.085000", "182326.085000", "182328.084000", "182330.084000", "182332.085000", "182334.084000", "182336.084000", "182338.084000", "182340.085000", "182342.085000", "182344.085000", "182346.084000", "182348.084000", "182350.084000", "182352.084000", "182354.084000", "182356.083000", "182358.085000", "182400.085000", "182402.084000", "182404.084000", "182406.084000", "182408.084000", "182410.084000", "182412.084000", "182414.084000", "182416.085000", "182418.085000", "182420.084000", "182422.084000", "182424.084000", "182426.091000", "182428.084000", "182430.084000", "182432.084000", "182434.085000", "182436.086000", "182438.085000", "182440.084000", "182442.084000", "182443.587000"],
      "InstanceCreationTime": ["181926.594000", "181927.583000", "181928.582000", "181928.587000", "181929.583000", "181929.587000", "181930.583000", "181932.084000", "181934.084000", "181936.085000", "181938.085000", "181940.085000", "181942.085000", "181944.084000", "181946.084000", "181948.084000", "181950.084000", "181952.084000", "181954.085000", "181956.085000", "181958.084000", "182000.084000", "182002.084000", "182004.084000", "182006.084000", "182008.084000", "182010.084000", "182012.085000", "182014.085000", "182016.084000", "182018.084000", "182020.083000", "182022.084000", "182024.084000", "182026.084000", "182028.085000", "182030.085000", "182032.083000", "182034.085000", "182036.084000", "182038.084000", "182040.084000", "182042.084000", "182044.084000", "182046.085000", "182048.085000", "182050.085000", "182052.084000", "182054.084000", "182056.084000", "182058.084000", "182100.084000", "182102.084000", "182104.085000", "182106.085000", "182108.084000", "182110.084000", "182112.084000", "182114.084000", "182116.084000", "182118.084000", "182120.085000", "182122.085000", "182124.085000", "182126.084000", "182128.084000", "182130.084000", "182132.084000", "182134.084000", "182136.084000", "182138.085000", "182140.085000", "182142.084000", "182144.084000", "182146.084000", "182148.084000", "182150.084000", "182152.084000", "182154.084000", "182156.085000", "182158.085000", "182200.084000", "182202.084000", "182204.084000", "182206.085000", "182208.087000", "182210.087000", "182212.086000", "182214.085000", "182216.085000", "182218.084000", "182220.084000", "182222.084000", "182224.084000", "182226.084000", "182228.084000", "182230.086000", "182232.085000", "182234.085000", "182236.083000", "182238.084000", "182240.084000", "182242.084000", "182244.084000", "182246.084000", "182248.085000", "182250.085000", "182252.084000", "182254.083000", "182256.085000", "182258.084000", "182300.084000", "182302.084000", "182304.084000", "182306.085000", "182308.085000", "182310.084000", "182312.084000", "182314.084000", "182316.084000", "182318.085000", "182320.084000", "182322.084000", "182324.085000", "182326.085000", "182328.084000", "182330.084000", "182332.085000", "182334.084000", "182336.084000", "182338.084000", "182340.085000", "182342.085000", "182344.085000", "182346.084000", "182348.084000", "182350.084000", "182352.084000", "182354.084000", "182356.083000", "182358.085000", "182400.085000", "182402.084000", "182404.084000", "182406.084000", "182408.084000", "182410.084000", "182412.084000", "182414.084000", "182416.085000", "182418.085000", "182420.084000", "182422.084000", "182424.084000", "182426.091000", "182428.084000", "182430.084000", "182432.084000", "182434.085000", "182436.086000", "182438.085000", "182440.084000", "182442.084000", "182443.587000"],
      "InstanceNumber": [1, 2, 3, 4, 5, 6, 7, 8, 9, 10, 11, 12, 13, 14, 15, 16, 17, 18, 19, 20, 21, 22, 23, 24, 25, 26, 27, 28, 29, 30, 31, 32, 33, 34, 35, 36, 37, 38, 39, 40, 41, 42, 43, 44, 45, 46, 47, 48, 49, 50, 51, 52, 53, 54, 55, 56, 57, 58, 59, 60, 61, 62, 63, 64, 65, 66, 67, 68, 69, 70, 71, 72, 73, 74, 75, 76, 77, 78, 79, 80, 81, 82, 83, 84, 85, 86, 87, 88, 89, 90, 91, 92, 93, 94, 95, 96, 97, 98, 99, 100, 101, 102, 103, 104, 105, 106, 107, 108, 109, 110, 111, 112, 113, 114, 115, 116, 117, 118, 119, 120, 121, 122, 123, 124, 125, 126, 127, 128, 129, 130, 131, 132, 133, 134, 135, 136, 137, 138, 139, 140, 141, 142, 143, 144, 145, 146, 147, 148, 149, 150, 151, 152, 153, 154, 155, 156, 157, 158, 159, 160, 161, 162, 163, 164],
      "WindowCenter": [15346.0, 15348.0, 15332.0, 15353.0, 15339.0, 15342.0, 15329.0, 15331.0, 15325.0, 15334.0, 15342.0, 15318.0, 15332.0, 15322.0, 15334.0, 15335.0, 15323.0, 15327.0, 15333.0, 15331.0, 15329.0, 15319.0, 15327.0, 15306.0, 15304.0, 15320.0, 15334.0, 15320.0, 15307.0, 15304.0, 15321.0, 15318.0, 15311.0, 15317.0, 15325.0, 15307.0, 15321.0, 15313.0, 15327.0, 15308.0, 15330.0, 15325.0, 15330.0, 15321.0, 15314.0, 15321.0, 15321.0, 15339.0, 15320.0, 15330.0, 15316.0, 15326.0, 15321.0, 15320.0, 15329.0, 15306.0, 15311.0, 15309.0, 15303.0, 15303.0, 15319.0, 15331.0, 15316.0, 15321.0, 15334.0, 15318.0, 15317.0, 15322.0, 15312.0, 15307.0, 15332.0, 15344.0, 15320.0, 15309.0, 15315.0, 15310.0, 15312.0, 15321.0, 15324.0, 15330.0, 15347.0, 15337.0, 15324.0, 15319.0, 15335.0, 15358.0, 15352.0, 15349.0, 15344.0, 15336.0, 15329.0, 15326.0, 15334.0, 15325.0, 15351.0, 15351.0, 15329.0, 15310.0, 15334.0, 15339.0, 15341.0, 15346.0, 15340.0, 15339.0, 15342.0, 15347.0, 15347.0, 15329.0, 15326.0, 15335.0, 15320.0, 15334.0, 15326.0, 15320.0, 15336.0, 15351.0, 15339.0, 15326.0, 15319.0, 15328.0, 15344.0, 15351.0, 15349.0, 15346.0, 15334.0, 15337.0, 15339.0, 15331.0, 15359.0, 15364.0, 15368.0, 15344.0, 15344.0, 15344.0, 15350.0, 15348.0, 15370.0, 15356.0, 15358.0, 15348.0, 15346.0, 15356.0, 15362.0, 15347.0, 15353.0, 15354.0, 15340.0, 15355.0, 15346.0, 15350.0, 15349.0, 15353.0, 15353.0, 15365.0, 15346.0, 15361.0, 15342.0, 15349.0, 15362.0, 15337.0, 15368.0, 15357.0, 15366.0, 15355.0],
      "WindowWidth": [46265.0, 46183.0, 46225.0, 46173.0, 46132.0, 46076.0, 46066.0, 46084.0, 46134.0, 46141.0, 46105.0, 46114.0, 46068.0, 46086.0, 46085.0, 46086.0, 46048.0, 46036.0, 46012.0, 46025.0, 46065.0, 46059.0, 46066.0, 46120.0, 46159.0, 46174.0, 46126.0, 46102.0, 46107.0, 46133.0, 46147.0, 46127.0, 46022.0, 46013.0, 46022.0, 46062.0, 46032.0, 46038.0, 46093.0, 46150.0, 46139.0, 46121.0, 46098.0, 46105.0, 46113.0, 46191.0, 46217.0, 46190.0, 46114.0, 45927.0, 45872.0, 45837.0, 45790.0, 45816.0, 45884.0, 45993.0, 46067.0, 46081.0, 46144.0, 46176.0, 46201.0, 46213.0, 46184.0, 46146.0, 46141.0, 46142.0, 46111.0, 46116.0, 46152.0, 46190.0, 46141.0, 46079.0, 46073.0, 46106.0, 46126.0, 46152.0, 46167.0, 46177.0, 46262.0, 46297.0, 46224.0, 46144.0, 46132.0, 46143.0, 46144.0, 46149.0, 46144.0, 46083.0, 46050.0, 46072.0, 46151.0, 46177.0, 46169.0, 46174.0, 46183.0, 46168.0, 46165.0, 46163.0, 46127.0, 46174.0, 46203.0, 46124.0, 46031.0, 46044.0, 46047.0, 46052.0, 45995.0, 45977.0, 45975.0, 46013.0, 46030.0, 46084.0, 46135.0, 46216.0, 46230.0, 46227.0, 46160.0, 46106.0, 46086.0, 46123.0, 46107.0, 46071.0, 46055.0, 46109.0, 46070.0, 45974.0, 45947.0, 46056.0, 46154.0, 46198.0, 46114.0, 46078.0, 46023.0, 46139.0, 46187.0, 46169.0, 46045.0, 45975.0, 45921.0, 45956.0, 46012.0, 46049.0, 46055.0, 46067.0, 46085.0, 46076.0, 46118.0, 46162.0, 46183.0, 46173.0, 46183.0, 46144.0, 46145.0, 46210.0, 46177.0, 46120.0, 46077.0, 46056.0, 46124.0, 46189.0, 46143.0, 46049.0, 46028.0, 46018.0]
    },
    "slices": {}
  }
}