{
  "AcquisitionMatrixPE": 116,
  "AcquisitionNumber": 1,
  "AcquisitionTime": "17:55:37.755000",
  "BandwidthPerPixelPhaseEncode": 18.539,
  "BaseResolution": 116,
  "BodyPartExamined": "HEAD",
  "ConsistencyInfo": "N4_VD13D_LATEST_20130810",
  "ConversionSoftware": "dcm2niix",
  "ConversionSoftwareVersion": "v1.0.20190410  (JP2:OpenJPEG) (JP-LS:CharLS) GCC5.5.0",
  "DerivedVendorReportedEchoSpacing": 0.000930006,
  "DeviceSerialNumber": "66014",
  "DwellTime": 3e-06,
  "EchoTime": 0.03,
  "EchoTrainLength": 50,
  "EffectiveEchoSpacing": 0.000465003,
  "FlipAngle": 81,
  "ImageComments": "Unaliased_MB3_PE4",
  "ImageOrientationPatientDICOM": [0.999612, -0.024001, 0.0141511, 0.02443, 0.999222, -0.0309624],
  "ImageType": [
    "ORIGINAL",
    "PRIMARY",
    "M",
    "MB",
    "ND",
    "MOSAIC"
],
  "ImagingFrequency": 123.261,
  "InPlanePhaseEncodingDirectionDICOM": "COL",
  "InstitutionAddress": "Yiheyuan_Road_5_Beijing_Haidian_CN_100871",
  "InstitutionName": "Peking_Univeristy",
  "InstitutionalDepartmentName": "Department",
  "MRAcquisitionType": "2D",
  "MagneticFieldStrength": 3,
  "Manufacturer": "Siemens",
  "ManufacturersModelName": "Prisma",
  "Modality": "MR",
  "MultibandAccelerationFactor": 3,
  "ParallelReductionFactorInPlane": 2,
  "PartialFourier": 0.875,
  "PatientPosition": "HFS",
  "PercentPhaseFOV": 100,
  "PhaseEncodingDirection": "j-",
  "PhaseEncodingSteps": 101,
  "PhaseResolution": 1,
  "PixelBandwidth": 1435,
  "ProcedureStepDescription": "Research_Projects_64CH",
  "ProtocolName": "mbep2d_bold_MB3_test3",
  "PulseSequenceDetails": "%CustomerSeq%_cmrr_mbep2d_bold",
  "ReceiveCoilActiveElements": "HC1-6",
  "ReceiveCoilName": "HeadNeck_64",
  "ReconMatrixPE": 116,
  "RefLinesPE": 44,
  "RepetitionTime": 2,
  "SAR": 0.0519938,
  "ScanOptions": "PFP_FS",
  "ScanningSequence": "EP",
  "SequenceName": "epfid2d1_116",
  "SequenceVariant": "SK_SS",
  "SeriesDescription": "mbep2d_bold_MB3_test3",
  "SeriesNumber": 8,
  "ShimSetting": [-3447, -2105, -1965, 411, -8, -196, 4, -11],
  "SliceThickness": 1.9,
  "SliceTiming": [0, 0.9075, 1.815, 0.7425, 1.65, 0.5775, 1.485, 0.4125, 1.32, 0.2475, 1.155, 0.0825, 0.99, 1.8975, 0.825, 1.7325, 0.66, 1.5675, 0.495, 1.4025, 0.33, 1.2375, 0.165, 1.0725, 0, 0.9075, 1.815, 0.7425, 1.65, 0.5775, 1.485, 0.4125, 1.32, 0.2475, 1.155, 0.0825, 0.99, 1.8975, 0.825, 1.7325, 0.66, 1.5675, 0.495, 1.4025, 0.33, 1.2375, 0.165, 1.0725, 0, 0.9075, 1.815, 0.7425, 1.65, 0.5775, 1.485, 0.4125, 1.32, 0.2475, 1.155, 0.0825, 0.99, 1.8975, 0.825, 1.7325, 0.66, 1.5675, 0.495, 1.4025, 0.33, 1.2375, 0.165, 1.0725],
  "SoftwareVersions": "syngo_MR_D13D",
  "SpacingBetweenSlices": 1.9,
  "StationName": "AWP66014",
  "TaskName": "retrieval",
  "TotalReadoutTime": 0.0534753,
  "TxRefAmp": 213.525,
  "WipMemBlock": "c818915c-8ca4-4906-af13-b78762a94173||Sequence: vd13d/master r/0735857; Nov 19 2014 09:21:40 by eja",
  "dcmmeta_affine": [
    [-1.8958154916763306, 0.0463327132165432, 0.025454184040427208, 105.71771240234375],
    [0.04551916569471359, 1.8950761556625366, -0.059462543576955795, -99.50531768798828],
    [0.02683825045824051, 0.058721765875816345, 1.898898720741272, -72.18922424316406],
    [0.0, 0.0, 0.0, 1.0]
],
  "dcmmeta_reorient_transform": [
    [0.0, -1.0, 0.0, 115.0],
    [1.0, 0.0, 0.0, 0.0],
    [0.0, 0.0, 1.0, 0.0],
    [0.0, 0.0, 0.0, 1.0]
],
  "dcmmeta_shape": [116, 116, 72, 289],
  "dcmmeta_slice_dim": 2,
  "dcmmeta_version": 0.6,
  "global": {
    "const": {
      "AcquisitionMatrix": [116, 0, 0, 116],
      "AngioFlag": "N",
      "BitsAllocated": 16,
      "BitsStored": 16,
      "BodyPartExamined": "HEAD",
      "Columns": 1044,
      "EchoNumbers": 1,
      "EchoTime": 30.0,
      "EchoTrainLength": 50,
      "FlipAngle": 81.0,
      "HighBit": 15,
      "ImageOrientationPatient": [0.99961177378486, -0.0240010148914, 0.01415107751601, 0.02442997638478, 0.99922195081297, -0.0309623847169],
      "ImagePositionPatient": [-1012.2027190997, -976.62285959059, -50.642267260873],
      "ImageType": [
        "ORIGINAL",
        "PRIMARY",
        "M",
        "MB",
        "ND",
        "MOSAIC"
],
      "ImagedNucleus": "1H",
      "ImagingFrequency": 123.26058,
      "InPlanePhaseEncodingDirection": "COL",
      "LargestImagePixelValue": 65535,
      "MRAcquisitionType": "2D",
      "MagneticFieldStrength": 3.0,
      "Manufacturer": "SIEMENS",
      "ManufacturerModelName": "Prisma",
      "Modality": "MR",
      "NumberOfAverages": 1.0,
      "NumberOfPhaseEncodingSteps": 101,
      "PercentPhaseFieldOfView": 100.0,
      "PercentSampling": 100.0,
      "PerformedProcedureStepStartTime": "171451.006000",
      "PhotometricInterpretation": "MONOCHROME2",
      "PixelBandwidth": 1435.0,
      "PixelRepresentation": 0,
      "PixelSpacing": [1.8965517282486, 1.8965517282486],
      "ProtocolName": "mbep2d_bold_MB3_test3",
      "RepetitionTime": 2000.0,
      "Rows": 1044,
      "SAR": 0.05199376293348,
      "SamplesPerPixel": 1,
      "ScanOptions": [
        "PFP",
        "FS"
],
      "ScanningSequence": "EP",
      "SequenceName": "epfid2d1_116",
      "SequenceVariant": [
        "SK",
        "SS"
],
      "SeriesDescription": "mbep2d_bold_MB3_test3",
      "SeriesNumber": 8,
      "SeriesTime": "175548.899000",
      "SliceLocation": -67.616957886605,
      "SliceThickness": 1.8999999761581,
      "SmallestImagePixelValue": 0,
      "SoftwareVersions": "syngo MR D13D",
      "SpacingBetweenSlices": 1.8999999975449,
      "SpecificCharacterSet": "ISO_IR 100",
      "StudyID": "1",
      "StudyTime": "171450.883000",
      "TimeOfLastCalibration": ["123723.000000", "123723.000000"],
      "TransmitCoilName": "Body",
      "VariableFlipAngleFlag": "N",
      "WindowCenterWidthExplanation": "Algo1",
      "dBdt": 0.0},
    "slices": {}
  },
  "time": {
    "samples": {
      "AcquisitionNumber": [1, 2, 3, 4, 5, 6, 7, 8, 9, 10, 11, 12, 13, 14, 15, 16, 17, 18, 19, 20, 21, 22, 23, 24, 25, 26, 27, 28, 29, 30, 31, 32, 33, 34, 35, 36, 37, 38, 39, 40, 41, 42, 43, 44, 45, 46, 47, 48, 49, 50, 51, 52, 53, 54, 55, 56, 57, 58, 59, 60, 61, 62, 63, 64, 65, 66, 67, 68, 69, 70, 71, 72, 73, 74, 75, 76, 77, 78, 79, 80, 81, 82, 83, 84, 85, 86, 87, 88, 89, 90, 91, 92, 93, 94, 95, 96, 97, 98, 99, 100, 101, 102, 103, 104, 105, 106, 107, 108, 109, 110, 111, 112, 113, 114, 115, 116, 117, 118, 119, 120, 121, 122, 123, 124, 125, 126, 127, 128, 129, 130, 131, 132, 133, 134, 135, 136, 137, 138, 139, 140, 141, 142, 143, 144, 145, 146, 147, 148, 149, 150, 151, 152, 153, 154, 155, 156, 157, 158, 159, 160, 161, 162, 163, 164, 165, 166, 167, 168, 169, 170, 171, 172, 173, 174, 175, 176, 177, 178, 179, 180, 181, 182, 183, 184, 185, 186, 187, 188, 189, 190, 191, 192, 193, 194, 195, 196, 197, 198, 199, 200, 201, 202, 203, 204, 205, 206, 207, 208, 209, 210, 211, 212, 213, 214, 215, 216, 217, 218, 219, 220, 221, 222, 223, 224, 225, 226, 227, 228, 229, 230, 231, 232, 233, 234, 235, 236, 237, 238, 239, 240, 241, 242, 243, 244, 245, 246, 247, 248, 249, 250, 251, 252, 253, 254, 255, 256, 257, 258, 259, 260, 261, 262, 263, 264, 265, 266, 267, 268, 269, 270, 271, 272, 273, 274, 275, 276, 277, 278, 279, 280, 281, 282, 283, 284, 285, 286, 287, 288, 289],
      "AcquisitionTime": ["175537.755000", "175539.755000", "175541.755000", "175543.755000", "175545.755000", "175547.755000", "175549.755000", "175551.755000", "175553.755000", "175555.755000", "175557.755000", "175559.755000", "175601.755000", "175603.755000", "175605.755000", "175607.757500", "175609.757500", "175611.757500", "175613.757500", "175615.757500", "175617.757500", "175619.757500", "175621.757500", "175623.757500", "175625.757500", "175627.757500", "175629.757500", "175631.757500", "175633.757500", "175635.757500", "175637.757500", "175639.757500", "175641.757500", "175643.757500", "175645.757500", "175647.757500", "175649.757500", "175651.757500", "175653.757500", "175655.757500", "175657.757500", "175659.757500", "175701.757500", "175703.757500", "175705.757500", "175707.757500", "175709.757500", "175711.757500", "175713.757500", "175715.757500", "175717.757500", "175719.757500", "175721.757500", "175723.757500", "175725.757500", "175727.757500", "175729.757500", "175731.757500", "175733.757500", "175735.757500", "175737.757500", "175739.757500", "175741.757500", "175743.757500", "175745.757500", "175747.757500", "175749.757500", "175751.757500", "175753.757500", "175755.757500", "175757.757500", "175759.757500", "175801.757500", "175803.757500", "175805.757500", "175807.757500", "175809.757500", "175811.757500", "175813.757500", "175815.757500", "175817.757500", "175819.757500", "175821.757500", "175823.757500", "175825.757500", "175827.757500", "175829.757500", "175831.757500", "175833.757500", "175835.757500", "175837.757500", "175839.757500", "175841.757500", "175843.757500", "175845.757500", "175847.757500", "175849.757500", "175851.757500", "175853.757500", "175855.757500", "175857.757500", "175859.757500", "175901.757500", "175903.757500", "175905.757500", "175907.757500", "175909.757500", "175911.757500", "175913.757500", "175915.757500", "175917.757500", "175919.757500", "175921.757500", "175923.757500", "175925.757500", "175927.757500", "175929.757500", "175931.757500", "175933.757500", "175935.757500", "175937.757500", "175939.757500", "175941.757500", "175943.757500", "175945.757500", "175947.757500", "175949.757500", "175951.757500", "175953.757500", "175955.757500", "175957.757500", "175959.757500", "180001.757500", "180003.757500", "180005.757500", "180007.757500", "180009.757500", "180011.757500", "180013.757500", "180015.757500", "180017.757500", "180019.757500", "180021.757500", "180023.757500", "180025.757500", "180027.757500", "180029.757500", "180031.757500", "180033.757500", "180035.757500", "180037.757500", "180039.757500", "180041.757500", "180043.757500", "180045.757500", "180047.757500", "180049.757500", "180051.757500", "180053.757500", "180055.757500", "180057.757500", "180059.757500", "180101.757500", "180103.757500", "180105.757500", "180107.757500", "180109.757500", "180111.757500", "180113.757500", "180115.757500", "180117.757500", "180119.757500", "180121.757500", "180123.757500", "180125.757500", "180127.757500", "180129.757500", "180131.757500", "180133.757500", "180135.757500", "180137.757500", "180139.757500", "180141.757500", "180143.757500", "180145.757500", "180147.757500", "180149.757500", "180151.757500", "180153.757500", "180155.757500", "180157.757500", "180159.757500", "180201.757500", "180203.757500", "180205.757500", "180207.757500", "180209.757500", "180211.757500", "180213.757500", "180215.757500", "180217.757500", "180219.757500", "180221.757500", "180223.757500", "180225.757500", "180227.757500", "180229.757500", "180231.757500", "180233.757500", "180235.757500", "180237.757500", "180239.757500", "180241.757500", "180243.757500", "180245.757500", "180247.757500", "180249.757500", "180251.757500", "180253.757500", "180255.757500", "180257.757500", "180259.757500", "180301.757500", "180303.757500", "180305.757500", "180307.757500", "180309.757500", "180311.757500", "180313.757500", "180315.757500", "180317.757500", "180319.757500", "180321.757500", "180323.757500", "180325.757500", "180327.757500", "180329.757500", "180331.757500", "180333.757500", "180335.757500", "180337.757500", "180339.757500", "180341.757500", "180343.757500", "180345.757500", "180347.757500", "180349.757500", "180351.757500", "180353.757500", "180355.757500", "180357.757500", "180359.757500", "180401.757500", "180403.757500", "180405.757500", "180407.757500", "180409.757500", "180411.757500", "180413.757500", "180415.757500", "180417.757500", "180419.757500", "180421.757500", "180423.757500", "180425.757500", "180427.760000", "180429.760000", "180431.760000", "180433.760000", "180435.760000", "180437.760000", "180439.760000", "180441.760000", "180443.760000", "180445.760000", "180447.760000", "180449.760000", "180451.760000", "180453.760000", "180455.760000", "180457.760000", "180459.760000", "180501.760000", "180503.760000", "180505.760000", "180507.760000", "180509.760000", "180511.760000", "180513.760000"],
      "ContentTime": ["175548.904000", "175549.898000", "175549.903000", "175550.896000", "175550.900000", "175551.895000", "175552.896000", "175554.397000", "175556.397000", "175558.398000", "175600.398000", "175602.399000", "175604.398000", "175606.399000", "175608.397000", "175610.398000", "175612.397000", "175614.397000", "175616.397000", "175618.398000", "175620.398000", "175622.398000", "175624.398000", "175626.398000", "175628.397000", "175630.397000", "175632.397000", "175634.398000", "175636.398000", "175638.398000", "175640.398000", "175642.397000", "175644.398000", "175646.397000", "175648.397000", "175650.397000", "175652.397000", "175654.398000", "175656.398000", "175658.398000", "175700.397000", "175702.396000", "175704.397000", "175706.397000", "175708.397000", "175710.396000", "175712.398000", "175714.401000", "175716.400000", "175718.398000", "175720.397000", "175722.397000", "175724.397000", "175726.397000", "175728.398000", "175730.398000", "175732.398000", "175734.398000", "175736.397000", "175738.397000", "175740.397000", "175742.397000", "175744.398000", "175746.398000", "175748.398000", "175750.398000", "175752.397000", "175754.397000", "175756.397000", "175758.397000", "175800.397000", "175802.398000", "175804.398000", "175806.398000", "175808.398000", "175810.398000", "175812.397000", "175814.397000", "175816.397000", "175818.397000", "175820.398000", "175822.398000", "175824.398000", "175826.398000", "175828.396000", "175830.398000", "175832.397000", "175834.397000", "175836.398000", "175838.398000", "175840.398000", "175842.398000", "175844.398000", "175846.397000", "175848.397000", "175850.397000", "175852.397000", "175854.398000", "175856.398000", "175858.398000", "175900.399000", "175902.397000", "175904.397000", "175906.397000", "175908.397000", "175910.397000", "175912.398000", "175914.398000", "175916.398000", "175918.398000", "175920.397000", "175922.397000", "175924.397000", "175926.398000", "175928.397000", "175930.398000", "175932.398000", "175934.397000", "175936.398000", "175938.398000", "175940.396000", "175942.397000", "175944.397000", "175946.398000", "175948.398000", "175950.398000", "175952.398000", "175954.398000", "175956.397000", "175958.397000", "180000.397000", "180002.396000", "180004.398000", "180006.398000", "180008.398000", "180010.398000", "180012.397000", "180014.397000", "180016.397000", "180018.396000", "180020.397000", "180022.398000", "180024.398000", "180026.398000", "180028.398000", "180030.397000", "180032.397000", "180034.397000", "180036.397000", "180038.398000", "180040.398000", "180042.398000", "180044.398000", "180046.398000", "180048.397000", "180050.398000", "180052.397000", "180054.397000", "180056.398000", "180058.398000", "180100.397000", "180102.398000", "180104.398000", "180106.397000", "180108.397000", "180110.398000", "180112.397000", "180114.398000", "180116.399000", "180118.398000", "180120.398000", "180122.396000", "180124.396000", "180126.398000", "180128.397000", "180130.397000", "180132.398000", "180134.398000", "180136.399000", "180138.398000", "180140.397000", "180142.397000", "180144.397000", "180146.397000", "180148.397000", "180150.398000", "180152.398000", "180154.398000", "180156.398000", "180158.397000", "180200.397000", "180202.397000", "180204.397000", "180206.398000", "180208.398000", "180210.399000", "180212.398000", "180214.398000", "180216.403000", "180218.397000", "180220.397000", "180222.397000", "180224.398000", "180226.398000", "180228.398000", "180230.397000", "180232.396000", "180234.397000", "180236.397000", "180238.397000", "180240.397000", "180242.398000", "180244.398000", "180246.398000", "180248.398000", "180250.397000", "180252.397000", "180254.398000", "180256.396000", "180258.397000", "180300.399000", "180302.398000", "180304.398000", "180306.398000", "180308.397000", "180310.397000", "180312.397000", "180314.397000", "180316.398000", "180318.398000", "180320.399000", "180322.397000", "180324.398000", "180326.397000", "180328.397000", "180330.397000", "180332.397000", "180334.398000", "180336.398000", "180338.398000", "180340.398000", "180342.397000", "180344.397000", "180346.397000", "180348.397000", "180350.397000", "180352.398000", "180354.399000", "180356.398000", "180358.398000", "180400.398000", "180402.397000", "180404.397000", "180406.397000", "180408.396000", "180410.398000", "180412.398000", "180414.398000", "180416.398000", "180418.397000", "180420.397000", "180422.397000", "180424.397000", "180426.398000", "180428.399000", "180430.398000", "180432.399000", "180434.397000", "180436.397000", "180438.397000", "180440.397000", "180442.397000", "180444.398000", "180446.398000", "180448.399000", "180450.398000", "180452.397000", "180454.398000", "180456.397000", "180458.398000", "180500.398000", "180502.398000", "180504.398000", "180506.398000", "180508.398000", "180510.398000", "180512.397000", "180514.397000", "180516.015000"],
      "InstanceCreationTime": ["175548.904000", "175549.898000", "175549.903000", "175550.896000", "175550.900000", "175551.895000", "175552.896000", "175554.397000", "175556.397000", "175558.398000", "175600.398000", "175602.399000", "175604.398000", "175606.399000", "175608.397000", "175610.398000", "175612.397000", "175614.397000", "175616.397000", "175618.398000", "175620.398000", "175622.398000", "175624.398000", "175626.398000", "175628.397000", "175630.397000", "175632.397000", "175634.398000", "175636.398000", "175638.398000", "175640.398000", "175642.397000", "175644.398000", "175646.397000", "175648.397000", "175650.397000", "175652.397000", "175654.398000", "175656.398000", "175658.398000", "175700.397000", "175702.396000", "175704.397000", "175706.397000", "175708.397000", "175710.396000", "175712.398000", "175714.401000", "175716.400000", "175718.398000", "175720.397000", "175722.397000", "175724.397000", "175726.397000", "175728.398000", "175730.398000", "175732.398000", "175734.398000", "175736.397000", "175738.397000", "175740.397000", "175742.397000", "175744.398000", "175746.398000", "175748.398000", "175750.398000", "175752.397000", "175754.397000", "175756.397000", "175758.397000", "175800.397000", "175802.398000", "175804.398000", "175806.398000", "175808.398000", "175810.398000", "175812.397000", "175814.397000", "175816.397000", "175818.397000", "175820.398000", "175822.398000", "175824.398000", "175826.398000", "175828.396000", "175830.398000", "175832.397000", "175834.397000", "175836.398000", "175838.398000", "175840.398000", "175842.398000", "175844.398000", "175846.397000", "175848.397000", "175850.397000", "175852.397000", "175854.398000", "175856.398000", "175858.398000", "175900.399000", "175902.397000", "175904.397000", "175906.397000", "175908.397000", "175910.397000", "175912.398000", "175914.398000", "175916.398000", "175918.398000", "175920.397000", "175922.397000", "175924.397000", "175926.398000", "175928.397000", "175930.398000", "175932.398000", "175934.397000", "175936.398000", "175938.398000", "175940.396000", "175942.397000", "175944.397000", "175946.398000", "175948.398000", "175950.398000", "175952.398000", "175954.398000", "175956.397000", "175958.397000", "180000.397000", "180002.396000", "180004.398000", "180006.398000", "180008.398000", "180010.398000", "180012.397000", "180014.397000", "180016.397000", "180018.396000", "180020.397000", "180022.398000", "180024.398000", "180026.398000", "180028.398000", "180030.397000", "180032.397000", "180034.397000", "180036.397000", "180038.398000", "180040.398000", "180042.398000", "180044.398000", "180046.398000", "180048.397000", "180050.398000", "180052.397000", "180054.397000", "180056.398000", "180058.398000", "180100.397000", "180102.398000", "180104.398000", "180106.397000", "180108.397000", "180110.398000", "180112.397000", "180114.398000", "180116.399000", "180118.398000", "180120.398000", "180122.396000", "180124.396000", "180126.398000", "180128.397000", "180130.397000", "180132.398000", "180134.398000", "180136.399000", "180138.398000", "180140.397000", "180142.397000", "180144.397000", "180146.397000", "180148.397000", "180150.398000", "180152.398000", "180154.398000", "180156.398000", "180158.397000", "180200.397000", "180202.397000", "180204.397000", "180206.398000", "180208.398000", "180210.399000", "180212.398000", "180214.398000", "180216.403000", "180218.397000", "180220.397000", "180222.397000", "180224.398000", "180226.398000", "180228.398000", "180230.397000", "180232.396000", "180234.397000", "180236.397000", "180238.397000", "180240.397000", "180242.398000", "180244.398000", "180246.398000", "180248.398000", "180250.397000", "180252.397000", "180254.398000", "180256.396000", "180258.397000", "180300.399000", "180302.398000", "180304.398000", "180306.398000", "180308.397000", "180310.397000", "180312.397000", "180314.397000", "180316.398000", "180318.398000", "180320.399000", "180322.397000", "180324.398000", "180326.397000", "180328.397000", "180330.397000", "180332.397000", "180334.398000", "180336.398000", "180338.398000", "180340.398000", "180342.397000", "180344.397000", "180346.397000", "180348.397000", "180350.397000", "180352.398000", "180354.399000", "180356.398000", "180358.398000", "180400.398000", "180402.397000", "180404.397000", "180406.397000", "180408.396000", "180410.398000", "180412.398000", "180414.398000", "180416.398000", "180418.397000", "180420.397000", "180422.397000", "180424.397000", "180426.398000", "180428.399000", "180430.398000", "180432.399000", "180434.397000", "180436.397000", "180438.397000", "180440.397000", "180442.397000", "180444.398000", "180446.398000", "180448.399000", "180450.398000", "180452.397000", "180454.398000", "180456.397000", "180458.398000", "180500.398000", "180502.398000", "180504.398000", "180506.398000", "180508.398000", "180510.398000", "180512.397000", "180514.397000", "180516.015000"],
      "InstanceNumber": [1, 2, 3, 4, 5, 6, 7, 8, 9, 10, 11, 12, 13, 14, 15, 16, 17, 18, 19, 20, 21, 22, 23, 24, 25, 26, 27, 28, 29, 30, 31, 32, 33, 34, 35, 36, 37, 38, 39, 40, 41, 42, 43, 44, 45, 46, 47, 48, 49, 50, 51, 52, 53, 54, 55, 56, 57, 58, 59, 60, 61, 62, 63, 64, 65, 66, 67, 68, 69, 70, 71, 72, 73, 74, 75, 76, 77, 78, 79, 80, 81, 82, 83, 84, 85, 86, 87, 88, 89, 90, 91, 92, 93, 94, 95, 96, 97, 98, 99, 100, 101, 102, 103, 104, 105, 106, 107, 108, 109, 110, 111, 112, 113, 114, 115, 116, 117, 118, 119, 120, 121, 122, 123, 124, 125, 126, 127, 128, 129, 130, 131, 132, 133, 134, 135, 136, 137, 138, 139, 140, 141, 142, 143, 144, 145, 146, 147, 148, 149, 150, 151, 152, 153, 154, 155, 156, 157, 158, 159, 160, 161, 162, 163, 164, 165, 166, 167, 168, 169, 170, 171, 172, 173, 174, 175, 176, 177, 178, 179, 180, 181, 182, 183, 184, 185, 186, 187, 188, 189, 190, 191, 192, 193, 194, 195, 196, 197, 198, 199, 200, 201, 202, 203, 204, 205, 206, 207, 208, 209, 210, 211, 212, 213, 214, 215, 216, 217, 218, 219, 220, 221, 222, 223, 224, 225, 226, 227, 228, 229, 230, 231, 232, 233, 234, 235, 236, 237, 238, 239, 240, 241, 242, 243, 244, 245, 246, 247, 248, 249, 250, 251, 252, 253, 254, 255, 256, 257, 258, 259, 260, 261, 262, 263, 264, 265, 266, 267, 268, 269, 270, 271, 272, 273, 274, 275, 276, 277, 278, 279, 280, 281, 282, 283, 284, 285, 286, 287, 288, 289],
      "WindowCenter": [15287.0, 15272.0, 15275.0, 15258.0, 15266.0, 15264.0, 15268.0, 15258.0, 15253.0, 15248.0, 15258.0, 15265.0, 15239.0, 15251.0, 15254.0, 15249.0, 15250.0, 15250.0, 15247.0, 15236.0, 15239.0, 15236.0, 15243.0, 15235.0, 15240.0, 15240.0, 15228.0, 15234.0, 15232.0, 15232.0, 15230.0, 15230.0, 15219.0, 15242.0, 15239.0, 15227.0, 15224.0, 15246.0, 15240.0, 15233.0, 15238.0, 15229.0, 15228.0, 15237.0, 15239.0, 15234.0, 15232.0, 15248.0, 15221.0, 15217.0, 15222.0, 15223.0, 15227.0, 15248.0, 15244.0, 15231.0, 15228.0, 15227.0, 15241.0, 15231.0, 15245.0, 15232.0, 15243.0, 15231.0, 15223.0, 15234.0, 15236.0, 15220.0, 15217.0, 15243.0, 15241.0, 15244.0, 15244.0, 15241.0, 15227.0, 15230.0, 15247.0, 15235.0, 15249.0, 15232.0, 15235.0, 15249.0, 15245.0, 15241.0, 15241.0, 15244.0, 15249.0, 15243.0, 15244.0, 15249.0, 15248.0, 15250.0, 15243.0, 15249.0, 15235.0, 15232.0, 15233.0, 15242.0, 15237.0, 15230.0, 15245.0, 15246.0, 15253.0, 15236.0, 15238.0, 15235.0, 15238.0, 15229.0, 15239.0, 15243.0, 15243.0, 15251.0, 15259.0, 15272.0, 15254.0, 15252.0, 15247.0, 15248.0, 15257.0, 15254.0, 15249.0, 15261.0, 15281.0, 15255.0, 15252.0, 15255.0, 15263.0, 15259.0, 15244.0, 15251.0, 15235.0, 15228.0, 15245.0, 15246.0, 15251.0, 15243.0, 15251.0, 15249.0, 15242.0, 15233.0, 15243.0, 15249.0, 15233.0, 15252.0, 15256.0, 15274.0, 15253.0, 15258.0, 15265.0, 15254.0, 15258.0, 15258.0, 15235.0, 15246.0, 15250.0, 15275.0, 15258.0, 15249.0, 15264.0, 15256.0, 15265.0, 15268.0, 15270.0, 15247.0, 15249.0, 15254.0, 15262.0, 15269.0, 15276.0, 15265.0, 15272.0, 15279.0, 15264.0, 15259.0, 15258.0, 15250.0, 15267.0, 15271.0, 15253.0, 15266.0, 15270.0, 15281.0, 15266.0, 15273.0, 15257.0, 15260.0, 15249.0, 15269.0, 15249.0, 15256.0, 15262.0, 15246.0, 15251.0, 15247.0, 15244.0, 15270.0, 15249.0, 15247.0, 15257.0, 15261.0, 15237.0, 15262.0, 15266.0, 15269.0, 15242.0, 15279.0, 15262.0, 15269.0, 15285.0, 15267.0, 15270.0, 15270.0, 15262.0, 15268.0, 15269.0, 15277.0, 15281.0, 15266.0, 15254.0, 15266.0, 15269.0, 15261.0, 15288.0, 15287.0, 15272.0, 15279.0, 15253.0, 15265.0, 15249.0, 15262.0, 15249.0, 15264.0, 15275.0, 15265.0, 15270.0, 15268.0, 15269.0, 15251.0, 15253.0, 15273.0, 15269.0, 15266.0, 15244.0, 15270.0, 15263.0, 15266.0, 15269.0, 15266.0, 15254.0, 15260.0, 15261.0, 15267.0, 15260.0, 15254.0, 15244.0, 15250.0, 15243.0, 15253.0, 15256.0, 15273.0, 15245.0, 15265.0, 15264.0, 15265.0, 15273.0, 15258.0, 15268.0, 15258.0, 15263.0, 15265.0, 15272.0, 15255.0, 15257.0, 15244.0, 15253.0, 15262.0, 15278.0, 15282.0, 15273.0, 15284.0, 15258.0, 15269.0, 15261.0, 15288.0, 15261.0, 15266.0, 15267.0, 15274.0, 15269.0],
      "WindowWidth": [45815.0, 45744.0, 45701.0, 45732.0, 45781.0, 45765.0, 45726.0, 45688.0, 45667.0, 45634.0, 45631.0, 45651.0, 45643.0, 45624.0, 45628.0, 45609.0, 45611.0, 45654.0, 45694.0, 45629.0, 45630.0, 45584.0, 45620.0, 45685.0, 45675.0, 45614.0, 45618.0, 45639.0, 45638.0, 45638.0, 45635.0, 45662.0, 45624.0, 45603.0, 45573.0, 45578.0, 45633.0, 45680.0, 45661.0, 45640.0, 45616.0, 45667.0, 45723.0, 45703.0, 45673.0, 45639.0, 45639.0, 45668.0, 45688.0, 45683.0, 45643.0, 45673.0, 45706.0, 45710.0, 45664.0, 45595.0, 45608.0, 45636.0, 45678.0, 45696.0, 45664.0, 45636.0, 45616.0, 45607.0, 45644.0, 45641.0, 45657.0, 45630.0, 45682.0, 45692.0, 45704.0, 45664.0, 45648.0, 45618.0, 45662.0, 45708.0, 45694.0, 45656.0, 45653.0, 45712.0, 45799.0, 45739.0, 45649.0, 45619.0, 45648.0, 45724.0, 45714.0, 45662.0, 45592.0, 45613.0, 45699.0, 45741.0, 45661.0, 45623.0, 45614.0, 45669.0, 45655.0, 45691.0, 45716.0, 45737.0, 45737.0, 45754.0, 45745.0, 45688.0, 45686.0, 45684.0, 45645.0, 45638.0, 45661.0, 45710.0, 45738.0, 45760.0, 45752.0, 45762.0, 45716.0, 45672.0, 45669.0, 45712.0, 45734.0, 45762.0, 45826.0, 45852.0, 45796.0, 45717.0, 45686.0, 45733.0, 45738.0, 45677.0, 45663.0, 45642.0, 45644.0, 45695.0, 45722.0, 45710.0, 45685.0, 45665.0, 45644.0, 45658.0, 45692.0, 45686.0, 45691.0, 45698.0, 45757.0, 45760.0, 45705.0, 45666.0, 45702.0, 45708.0, 45714.0, 45747.0, 45707.0, 45676.0, 45703.0, 45738.0, 45773.0, 45779.0, 45750.0, 45728.0, 45757.0, 45819.0, 45813.0, 45745.0, 45661.0, 45683.0, 45728.0, 45745.0, 45754.0, 45775.0, 45781.0, 45787.0, 45791.0, 45725.0, 45669.0, 45694.0, 45750.0, 45771.0, 45756.0, 45760.0, 45759.0, 45771.0, 45775.0, 45767.0, 45729.0, 45762.0, 45735.0, 45722.0, 45714.0, 45701.0, 45729.0, 45762.0, 45781.0, 45769.0, 45744.0, 45768.0, 45783.0, 45803.0, 45758.0, 45756.0, 45765.0, 45783.0, 45877.0, 45897.0, 45842.0, 45802.0, 45795.0, 45798.0, 45840.0, 45788.0, 45744.0, 45759.0, 45805.0, 45805.0, 45797.0, 45846.0, 45933.0, 45939.0, 45914.0, 45916.0, 45919.0, 45900.0, 45862.0, 45897.0, 45904.0, 45902.0, 45861.0, 45838.0, 45832.0, 45842.0, 45843.0, 45825.0, 45827.0, 45783.0, 45765.0, 45814.0, 45846.0, 45788.0, 45787.0, 45744.0, 45776.0, 45837.0, 45845.0, 45755.0, 45765.0, 45803.0, 45771.0, 45759.0, 45791.0, 45828.0, 45776.0, 45766.0, 45826.0, 45875.0, 45898.0, 45863.0, 45837.0, 45771.0, 45795.0, 45832.0, 45837.0, 45836.0, 45841.0, 45857.0, 45814.0, 45771.0, 45764.0, 45838.0, 45848.0, 45838.0, 45799.0, 45815.0, 45836.0, 45821.0, 45793.0, 45782.0, 45820.0, 45899.0, 45911.0, 45828.0, 45780.0, 45773.0, 45781.0, 45776.0, 45829.0, 45820.0, 45812.0, 45815.0, 45789.0, 45824.0, 45862.0]
    },
    "slices": {}
  }
}