{
  "AcquisitionMatrixPE": 116,
  "AcquisitionNumber": 1,
  "AcquisitionTime": "18:20:29.497500",
  "BandwidthPerPixelPhaseEncode": 18.539,
  "BaseResolution": 116,
  "BodyPartExamined": "HEAD",
  "ConsistencyInfo": "N4_VD13D_LATEST_20130810",
  "ConversionSoftware": "dcm2niix",
  "ConversionSoftwareVersion": "v1.0.20190410  (JP2:OpenJPEG) (JP-LS:CharLS) GCC5.5.0",
  "DerivedVendorReportedEchoSpacing": 0.000930006,
  "DeviceSerialNumber": "66014",
  "DwellTime": 3e-06,
  "EchoTime": 0.03,
  "EchoTrainLength": 50,
  "EffectiveEchoSpacing": 0.000465003,
  "FlipAngle": 81,
  "ImageComments": "Unaliased_MB3_PE4",
  "ImageOrientationPatientDICOM": [0.998407, -0.0478927, -0.0298326, 0.0470837, 0.998519, -0.0272552],
  "ImageType": [
    "ORIGINAL",
    "PRIMARY",
    "M",
    "MB",
    "ND",
    "MOSAIC"
],
  "ImagingFrequency": 123.261,
  "InPlanePhaseEncodingDirectionDICOM": "COL",
  "InstitutionAddress": "Yiheyuan_Road_5_Beijing_Haidian_CN_100871",
  "InstitutionName": "Peking_University",
  "InstitutionalDepartmentName": "Department",
  "MRAcquisitionType": "2D",
  "MagneticFieldStrength": 3,
  "Manufacturer": "Siemens",
  "ManufacturersModelName": "Prisma",
  "Modality": "MR",
  "MultibandAccelerationFactor": 3,
  "ParallelReductionFactorInPlane": 2,
  "PartialFourier": 0.875,
  "PatientPosition": "HFS",
  "PercentPhaseFOV": 100,
  "PhaseEncodingDirection": "j-",
  "PhaseEncodingSteps": 101,
  "PhaseResolution": 1,
  "PixelBandwidth": 1435,
  "ProcedureStepDescription": "Research_Projects_64CH",
  "ProtocolName": "mbep2d_bold_MB3_learn4",
  "PulseSequenceDetails": "%CustomerSeq%_cmrr_mbep2d_bold",
  "ReceiveCoilActiveElements": "HC1-7",
  "ReceiveCoilName": "HeadNeck_64",
  "ReconMatrixPE": 116,
  "RefLinesPE": 44,
  "RepetitionTime": 2,
  "SAR": 0.0482178,
  "ScanOptions": "PFP_FS",
  "ScanningSequence": "EP",
  "SequenceName": "epfid2d1_116",
  "SequenceVariant": "SK_SS",
  "SeriesDescription": "mbep2d_bold_MB3_learn4",
  "SeriesNumber": 9,
  "ShimSetting": [-3481, -2111, -1977, 371, -78, 14, -1, -5],
  "SliceThickness": 1.9,
  "SliceTiming": [0, 0.9075, 1.815, 0.7425, 1.65, 0.5775, 1.485, 0.4125, 1.32, 0.2475, 1.155, 0.0825, 0.99, 1.8975, 0.825, 1.7325, 0.66, 1.5675, 0.495, 1.4025, 0.33, 1.2375, 0.165, 1.0725, 0, 0.9075, 1.815, 0.7425, 1.65, 0.5775, 1.485, 0.4125, 1.32, 0.2475, 1.155, 0.0825, 0.99, 1.8975, 0.825, 1.7325, 0.66, 1.5675, 0.495, 1.4025, 0.33, 1.2375, 0.165, 1.0725, 0, 0.9075, 1.815, 0.7425, 1.65, 0.5775, 1.485, 0.4125, 1.32, 0.2475, 1.155, 0.0825, 0.99, 1.8975, 0.825, 1.7325, 0.66, 1.5675, 0.495, 1.4025, 0.33, 1.2375, 0.165, 1.0725],
  "SoftwareVersions": "syngo_MR_D13D",
  "SpacingBetweenSlices": 1.9,
  "StationName": "AWP66014",
  "TaskName": "updating",
  "TotalReadoutTime": 0.0534753,
  "TxRefAmp": 220.016,
  "WipMemBlock": "97e05c18-e3d5-4343-99a1-c7f0212bf3d6||Sequence: vd13d/master r/0735857; Nov 19 2014 09:21:40 by eja",
  "dcmmeta_affine": [
    [-1.893530249595642, 0.08929663896560669, -0.059078119695186615, 102.70774841308594],
    [0.0908309668302536, 1.8937430381774902, -0.049033522605895996, -102.5568618774414],
    [-0.05657907575368881, 0.05169083550572395, 1.8984482288360596, -72.29691314697266],
    [0.0, 0.0, 0.0, 1.0]
],
  "dcmmeta_reorient_transform": [
    [0.0, -1.0, 0.0, 115.0],
    [1.0, 0.0, 0.0, 0.0],
    [0.0, 0.0, 1.0, 0.0],
    [0.0, 0.0, 0.0, 1.0]
],
  "dcmmeta_shape": [116, 116, 72, 218],
  "dcmmeta_slice_dim": 2,
  "dcmmeta_version": 0.6,
  "global": {
    "const": {
      "AcquisitionMatrix": [116, 0, 0, 116],
      "AngioFlag": "N",
      "BitsAllocated": 16,
      "BitsStored": 16,
      "BodyPartExamined": "HEAD",
      "Columns": 1044,
      "EchoNumbers": 1,
      "EchoTime": 30.0,
      "EchoTrainLength": 50,
      "FlipAngle": 81.0,
      "HighBit": 15,
      "ImageOrientationPatient": [0.99840688389836, -0.047892691674, -0.0298326041201, 0.04708368189976, 0.9985190447654, -0.0272551672086],
      "ImagePositionPatient": [-1033.0085637278, -951.77477566709, -16.115232116637],
      "ImageType": [
        "ORIGINAL",
        "PRIMARY",
        "M",
        "MB",
        "ND",
        "MOSAIC"
],
      "ImagedNucleus": "1H",
      "ImagingFrequency": 123.260612,
      "InPlanePhaseEncodingDirection": "COL",
      "LargestImagePixelValue": 65535,
      "MRAcquisitionType": "2D",
      "MagneticFieldStrength": 3.0,
      "Manufacturer": "SIEMENS",
      "ManufacturerModelName": "Prisma",
      "Modality": "MR",
      "NumberOfAverages": 1.0,
      "NumberOfPhaseEncodingSteps": 101,
      "PercentPhaseFieldOfView": 100.0,
      "PercentSampling": 100.0,
      "PerformedProcedureStepStartTime": "173833.858000",
      "PhotometricInterpretation": "MONOCHROME2",
      "PixelBandwidth": 1435.0,
      "PixelRepresentation": 0,
      "PixelSpacing": [1.8965517282486, 1.8965517282486],
      "ProtocolName": "mbep2d_bold_MB3_learn4",
      "RepetitionTime": 2000.0,
      "Rows": 1044,
      "SAR": 0.04821779074518,
      "SamplesPerPixel": 1,
      "ScanOptions": [
        "PFP",
        "FS"
],
      "ScanningSequence": "EP",
      "SequenceName": "epfid2d1_116",
      "SequenceVariant": [
        "SK",
        "SS"
],
      "SeriesDescription": "mbep2d_bold_MB3_learn4",
      "SeriesNumber": 9,
      "SeriesTime": "182045.034000",
      "SliceLocation": -72.784740323536,
      "SliceThickness": 1.8999999761581,
      "SmallestImagePixelValue": 0,
      "SoftwareVersions": "syngo MR D13D",
      "SpacingBetweenSlices": 1.900000012611,
      "SpecificCharacterSet": "ISO_IR 100",
      "StudyID": "1",
      "StudyTime": "173833.786000",
      "TimeOfLastCalibration": ["123723.000000", "123723.000000"],
      "TransmitCoilName": "Body",
      "VariableFlipAngleFlag": "N",
      "WindowCenterWidthExplanation": "Algo1",
      "dBdt": 0.0},
    "slices": {}
  },
  "time": {
    "samples": {
      "AcquisitionNumber": [1, 2, 3, 4, 5, 6, 7, 8, 9, 10, 11, 12, 13, 14, 15, 16, 17, 18, 19, 20, 21, 22, 23, 24, 25, 26, 27, 28, 29, 30, 31, 32, 33, 34, 35, 36, 37, 38, 39, 40, 41, 42, 43, 44, 45, 46, 47, 48, 49, 50, 51, 52, 53, 54, 55, 56, 57, 58, 59, 60, 61, 62, 63, 64, 65, 66, 67, 68, 69, 70, 71, 72, 73, 74, 75, 76, 77, 78, 79, 80, 81, 82, 83, 84, 85, 86, 87, 88, 89, 90, 91, 92, 93, 94, 95, 96, 97, 98, 99, 100, 101, 102, 103, 104, 105, 106, 107, 108, 109, 110, 111, 112, 113, 114, 115, 116, 117, 118, 119, 120, 121, 122, 123, 124, 125, 126, 127, 128, 129, 130, 131, 132, 133, 134, 135, 136, 137, 138, 139, 140, 141, 142, 143, 144, 145, 146, 147, 148, 149, 150, 151, 152, 153, 154, 155, 156, 157, 158, 159, 160, 161, 162, 163, 164, 165, 166, 167, 168, 169, 170, 171, 172, 173, 174, 175, 176, 177, 178, 179, 180, 181, 182, 183, 184, 185, 186, 187, 188, 189, 190, 191, 192, 193, 194, 195, 196, 197, 198, 199, 200, 201, 202, 203, 204, 205, 206, 207, 208, 209, 210, 211, 212, 213, 214, 215, 216, 217, 218],
      "AcquisitionTime": ["182029.497500", "182031.497500", "182033.497500", "182035.497500", "182037.497500", "182039.497500", "182041.497500", "182043.497500", "182045.497500", "182047.497500", "182049.497500", "182051.497500", "182053.497500", "182055.497500", "182057.497500", "182059.497500", "182101.497500", "182103.497500", "182105.497500", "182107.497500", "182109.497500", "182111.497500", "182113.497500", "182115.497500", "182117.497500", "182119.497500", "182121.497500", "182123.497500", "182125.497500", "182127.497500", "182129.497500", "182131.497500", "182133.497500", "182135.497500", "182137.497500", "182139.497500", "182141.497500", "182143.497500", "182145.497500", "182147.497500", "182149.497500", "182151.497500", "182153.497500", "182155.497500", "182157.497500", "182159.497500", "182201.497500", "182203.497500", "182205.497500", "182207.497500", "182209.497500", "182211.497500", "182213.497500", "182215.497500", "182217.497500", "182219.497500", "182221.497500", "182223.497500", "182225.497500", "182227.497500", "182229.497500", "182231.497500", "182233.497500", "182235.497500", "182237.497500", "182239.497500", "182241.497500", "182243.497500", "182245.497500", "182247.497500", "182249.497500", "182251.497500", "182253.497500", "182255.497500", "182257.497500", "182259.497500", "182301.497500", "182303.497500", "182305.497500", "182307.497500", "182309.497500", "182311.497500", "182313.497500", "182315.497500", "182317.500000", "182319.500000", "182321.500000", "182323.500000", "182325.500000", "182327.500000", "182329.500000", "182331.500000", "182333.500000", "182335.500000", "182337.500000", "182339.500000", "182341.500000", "182343.500000", "182345.500000", "182347.500000", "182349.500000", "182351.500000", "182353.500000", "182355.500000", "182357.500000", "182359.500000", "182401.500000", "182403.500000", "182405.500000", "182407.500000", "182409.500000", "182411.500000", "182413.500000", "182415.500000", "182417.500000", "182419.500000", "182421.500000", "182423.500000", "182425.500000", "182427.500000", "182429.500000", "182431.500000", "182433.500000", "182435.500000", "182437.500000", "182439.500000", "182441.500000", "182443.500000", "182445.500000", "182447.500000", "182449.500000", "182451.500000", "182453.500000", "182455.500000", "182457.500000", "182459.500000", "182501.500000", "182503.500000", "182505.500000", "182507.500000", "182509.500000", "182511.500000", "182513.500000", "182515.500000", "182517.500000", "182519.500000", "182521.500000", "182523.500000", "182525.500000", "182527.500000", "182529.500000", "182531.500000", "182533.500000", "182535.500000", "182537.500000", "182539.500000", "182541.500000", "182543.500000", "182545.500000", "182547.500000", "182549.500000", "182551.500000", "182553.500000", "182555.500000", "182557.500000", "182559.500000", "182601.500000", "182603.500000", "182605.500000", "182607.500000", "182609.500000", "182611.500000", "182613.500000", "182615.500000", "182617.500000", "182619.500000", "182621.500000", "182623.500000", "182625.500000", "182627.500000", "182629.500000", "182631.500000", "182633.500000", "182635.500000", "182637.500000", "182639.500000", "182641.500000", "182643.500000", "182645.500000", "182647.500000", "182649.500000", "182651.500000", "182653.500000", "182655.500000", "182657.500000", "182659.500000", "182701.500000", "182703.500000", "182705.500000", "182707.500000", "182709.500000", "182711.500000", "182713.500000", "182715.500000", "182717.500000", "182719.500000", "182721.500000", "182723.500000", "182725.500000", "182727.500000", "182729.500000", "182731.500000", "182733.500000", "182735.500000", "182737.500000", "182739.500000", "182741.500000", "182743.500000"],
      "ContentTime": ["182045.039000", "182046.032000", "182046.037000", "182047.033000", "182048.032000", "182049.032000", "182049.036000", "182050.031000", "182051.032000", "182052.032000", "182053.033000", "182054.531000", "182056.532000", "182058.532000", "182100.532000", "182102.533000", "182104.533000", "182106.533000", "182108.531000", "182110.532000", "182112.532000", "182114.532000", "182116.532000", "182118.533000", "182120.532000", "182122.533000", "182124.532000", "182126.532000", "182128.532000", "182130.532000", "182132.532000", "182134.532000", "182136.533000", "182138.533000", "182140.534000", "182142.530000", "182144.532000", "182146.532000", "182148.552000", "182150.532000", "182152.532000", "182154.533000", "182156.533000", "182158.533000", "182200.530000", "182202.532000", "182204.532000", "182206.532000", "182208.532000", "182210.532000", "182212.533000", "182214.533000", "182216.533000", "182218.532000", "182220.532000", "182222.532000", "182224.532000", "182226.532000", "182228.533000", "182230.534000", "182232.534000", "182234.532000", "182236.532000", "182238.532000", "182240.532000", "182242.532000", "182244.533000", "182246.532000", "182248.533000", "182250.533000", "182252.532000", "182254.532000", "182256.532000", "182258.533000", "182300.532000", "182302.532000", "182304.533000", "182306.534000", "182308.533000", "182310.532000", "182312.532000", "182314.533000", "182316.532000", "182318.532000", "182320.532000", "182322.533000", "182324.533000", "182326.533000", "182328.532000", "182330.532000", "182332.532000", "182334.532000", "182336.532000", "182338.533000", "182340.533000", "182342.532000", "182344.532000", "182346.532000", "182348.532000", "182350.532000", "182352.532000", "182354.533000", "182356.533000", "182358.535000", "182400.536000", "182402.534000", "182404.535000", "182406.532000", "182408.532000", "182410.531000", "182412.532000", "182414.533000", "182416.533000", "182418.533000", "182420.532000", "182422.532000", "182424.532000", "182426.532000", "182428.532000", "182430.532000", "182432.532000", "182434.533000", "182436.533000", "182438.532000", "182440.532000", "182442.532000", "182444.532000", "182446.532000", "182448.533000", "182450.533000", "182452.533000", "182454.533000", "182456.532000", "182458.532000", "182500.532000", "182502.533000", "182504.532000", "182506.533000", "182508.533000", "182510.533000", "182512.531000", "182514.532000", "182516.532000", "182518.532000", "182520.532000", "182522.532000", "182524.533000", "182526.534000", "182528.533000", "182530.532000", "182532.532000", "182534.532000", "182536.532000", "182538.532000", "182540.533000", "182542.533000", "182544.534000", "182546.534000", "182548.532000", "182550.532000", "182552.532000", "182554.532000", "182556.532000", "182558.531000", "182600.533000", "182602.533000", "182604.532000", "182606.531000", "182608.533000", "182610.533000", "182612.532000", "182614.532000", "182616.533000", "182618.533000", "182620.533000", "182622.533000", "182624.532000", "182626.532000", "182628.532000", "182630.532000", "182632.532000", "182634.533000", "182636.533000", "182638.532000", "182640.532000", "182642.532000", "182644.532000", "182646.532000", "182648.532000", "182650.533000", "182652.533000", "182654.533000", "182656.534000", "182658.533000", "182700.532000", "182702.533000", "182704.532000", "182706.532000", "182708.533000", "182710.534000", "182712.533000", "182714.532000", "182716.532000", "182718.533000", "182720.532000", "182722.532000", "182724.532000", "182726.533000", "182728.533000", "182730.545000", "182732.532000", "182734.532000", "182736.533000", "182738.532000", "182740.533000", "182742.532000", "182744.532000", "182746.395000"],
      "InstanceCreationTime": ["182045.039000", "182046.032000", "182046.037000", "182047.033000", "182048.032000", "182049.032000", "182049.036000", "182050.031000", "182051.032000", "182052.032000", "182053.033000", "182054.531000", "182056.532000", "182058.532000", "182100.532000", "182102.533000", "182104.533000", "182106.533000", "182108.531000", "182110.532000", "182112.532000", "182114.532000", "182116.532000", "182118.533000", "182120.532000", "182122.533000", "182124.532000", "182126.532000", "182128.532000", "182130.532000", "182132.532000", "182134.532000", "182136.533000", "182138.533000", "182140.534000", "182142.530000", "182144.532000", "182146.532000", "182148.552000", "182150.532000", "182152.532000", "182154.533000", "182156.533000", "182158.533000", "182200.530000", "182202.532000", "182204.532000", "182206.532000", "182208.532000", "182210.532000", "182212.533000", "182214.533000", "182216.533000", "182218.532000", "182220.532000", "182222.532000", "182224.532000", "182226.532000", "182228.533000", "182230.534000", "182232.534000", "182234.532000", "182236.532000", "182238.532000", "182240.532000", "182242.532000", "182244.533000", "182246.532000", "182248.533000", "182250.533000", "182252.532000", "182254.532000", "182256.532000", "182258.533000", "182300.532000", "182302.532000", "182304.533000", "182306.534000", "182308.533000", "182310.532000", "182312.532000", "182314.533000", "182316.532000", "182318.532000", "182320.532000", "182322.533000", "182324.533000", "182326.533000", "182328.532000", "182330.532000", "182332.532000", "182334.532000", "182336.532000", "182338.533000", "182340.533000", "182342.532000", "182344.532000", "182346.532000", "182348.532000", "182350.532000", "182352.532000", "182354.533000", "182356.533000", "182358.535000", "182400.536000", "182402.534000", "182404.535000", "182406.532000", "182408.532000", "182410.531000", "182412.532000", "182414.533000", "182416.533000", "182418.533000", "182420.532000", "182422.532000", "182424.532000", "182426.532000", "182428.532000", "182430.532000", "182432.532000", "182434.533000", "182436.533000", "182438.532000", "182440.532000", "182442.532000", "182444.532000", "182446.532000", "182448.533000", "182450.533000", "182452.533000", "182454.533000", "182456.532000", "182458.532000", "182500.532000", "182502.533000", "182504.532000", "182506.533000", "182508.533000", "182510.533000", "182512.531000", "182514.532000", "182516.532000", "182518.532000", "182520.532000", "182522.532000", "182524.533000", "182526.534000", "182528.533000", "182530.532000", "182532.532000", "182534.532000", "182536.532000", "182538.532000", "182540.533000", "182542.533000", "182544.534000", "182546.534000", "182548.532000", "182550.532000", "182552.532000", "182554.532000", "182556.532000", "182558.531000", "182600.533000", "182602.533000", "182604.532000", "182606.531000", "182608.533000", "182610.533000", "182612.532000", "182614.532000", "182616.533000", "182618.533000", "182620.533000", "182622.533000", "182624.532000", "182626.532000", "182628.532000", "182630.532000", "182632.532000", "182634.533000", "182636.533000", "182638.532000", "182640.532000", "182642.532000", "182644.532000", "182646.532000", "182648.532000", "182650.533000", "182652.533000", "182654.533000", "182656.534000", "182658.533000", "182700.532000", "182702.533000", "182704.532000", "182706.532000", "182708.533000", "182710.534000", "182712.533000", "182714.532000", "182716.532000", "182718.533000", "182720.532000", "182722.532000", "182724.532000", "182726.533000", "182728.533000", "182730.545000", "182732.532000", "182734.532000", "182736.533000", "182738.532000", "182740.533000", "182742.532000", "182744.532000", "182746.395000"],
      "InstanceNumber": [1, 2, 3, 4, 5, 6, 7, 8, 9, 10, 11, 12, 13, 14, 15, 16, 17, 18, 19, 20, 21, 22, 23, 24, 25, 26, 27, 28, 29, 30, 31, 32, 33, 34, 35, 36, 37, 38, 39, 40, 41, 42, 43, 44, 45, 46, 47, 48, 49, 50, 51, 52, 53, 54, 55, 56, 57, 58, 59, 60, 61, 62, 63, 64, 65, 66, 67, 68, 69, 70, 71, 72, 73, 74, 75, 76, 77, 78, 79, 80, 81, 82, 83, 84, 85, 86, 87, 88, 89, 90, 91, 92, 93, 94, 95, 96, 97, 98, 99, 100, 101, 102, 103, 104, 105, 106, 107, 108, 109, 110, 111, 112, 113, 114, 115, 116, 117, 118, 119, 120, 121, 122, 123, 124, 125, 126, 127, 128, 129, 130, 131, 132, 133, 134, 135, 136, 137, 138, 139, 140, 141, 142, 143, 144, 145, 146, 147, 148, 149, 150, 151, 152, 153, 154, 155, 156, 157, 158, 159, 160, 161, 162, 163, 164, 165, 166, 167, 168, 169, 170, 171, 172, 173, 174, 175, 176, 177, 178, 179, 180, 181, 182, 183, 184, 185, 186, 187, 188, 189, 190, 191, 192, 193, 194, 195, 196, 197, 198, 199, 200, 201, 202, 203, 204, 205, 206, 207, 208, 209, 210, 211, 212, 213, 214, 215, 216, 217, 218],
      "WindowCenter": [16545.0, 16524.0, 16536.0, 16538.0, 16551.0, 16549.0, 16537.0, 16511.0, 16508.0, 16511.0, 16511.0, 16518.0, 16518.0, 16516.0, 16516.0, 16506.0, 16511.0, 16507.0, 16503.0, 16509.0, 16496.0, 16492.0, 16511.0, 16520.0, 16521.0, 16522.0, 16525.0, 16524.0, 16527.0, 16527.0, 16519.0, 16504.0, 16494.0, 16508.0, 16511.0, 16509.0, 16502.0, 16509.0, 16510.0, 16509.0, 16494.0, 16509.0, 16513.0, 16514.0, 16524.0, 16525.0, 16531.0, 16512.0, 16510.0, 16513.0, 16518.0, 16517.0, 16512.0, 16513.0, 16523.0, 16530.0, 16532.0, 16540.0, 16523.0, 16518.0, 16521.0, 16527.0, 16513.0, 16531.0, 16521.0, 16521.0, 16531.0, 16524.0, 16534.0, 16529.0, 16536.0, 16541.0, 16529.0, 16526.0, 16518.0, 16526.0, 16535.0, 16533.0, 16526.0, 16528.0, 16517.0, 16534.0, 16530.0, 16542.0, 16544.0, 16530.0, 16539.0, 16517.0, 16529.0, 16518.0, 16524.0, 16533.0, 16518.0, 16536.0, 16536.0, 16534.0, 16532.0, 16540.0, 16555.0, 16556.0, 16565.0, 16562.0, 16549.0, 16541.0, 16551.0, 16548.0, 16550.0, 16543.0, 16541.0, 16531.0, 16533.0, 16539.0, 16534.0, 16538.0, 16530.0, 16521.0, 16531.0, 16521.0, 16531.0, 16535.0, 16546.0, 16557.0, 16554.0, 16539.0, 16523.0, 16520.0, 16512.0, 16514.0, 16523.0, 16530.0, 16531.0, 16535.0, 16529.0, 16500.0, 16521.0, 16528.0, 16535.0, 16542.0, 16532.0, 16520.0, 16530.0, 16520.0, 16540.0, 16544.0, 16528.0, 16526.0, 16536.0, 16535.0, 16537.0, 16541.0, 16561.0, 16557.0, 16554.0, 16550.0, 16538.0, 16530.0, 16544.0, 16550.0, 16541.0, 16544.0, 16557.0, 16560.0, 16553.0, 16552.0, 16557.0, 16560.0, 16550.0, 16542.0, 16551.0, 16548.0, 16553.0, 16559.0, 16540.0, 16562.0, 16550.0, 16548.0, 16547.0, 16543.0, 16547.0, 16555.0, 16550.0, 16562.0, 16551.0, 16556.0, 16565.0, 16552.0, 16561.0, 16556.0, 16543.0, 16553.0, 16564.0, 16531.0, 16591.0, 16598.0, 16582.0, 16584.0, 16577.0, 16570.0, 16580.0, 16575.0, 16568.0, 16572.0, 16586.0, 16578.0, 16570.0, 16599.0, 16612.0, 16604.0, 16598.0, 16589.0, 16574.0, 16573.0, 16591.0, 16581.0, 16559.0, 16575.0, 16578.0, 16578.0],
      "WindowWidth": [45193.0, 45093.0, 45172.0, 45201.0, 45211.0, 45156.0, 45063.0, 45011.0, 44955.0, 44987.0, 45027.0, 45034.0, 44992.0, 44976.0, 44962.0, 44955.0, 44972.0, 44983.0, 44938.0, 44862.0, 44890.0, 44939.0, 44971.0, 44993.0, 44982.0, 44957.0, 44960.0, 44984.0, 45028.0, 45001.0, 44980.0, 45034.0, 45024.0, 45050.0, 45025.0, 45051.0, 45057.0, 45039.0, 45027.0, 44986.0, 44957.0, 44987.0, 45097.0, 45072.0, 45055.0, 45056.0, 44994.0, 45030.0, 45026.0, 45044.0, 45048.0, 45061.0, 45069.0, 45111.0, 45147.0, 45127.0, 45144.0, 45124.0, 45080.0, 45021.0, 45024.0, 45043.0, 45031.0, 45074.0, 45116.0, 45132.0, 45126.0, 45148.0, 45156.0, 45168.0, 45175.0, 45137.0, 45113.0, 45085.0, 45131.0, 45125.0, 45145.0, 45130.0, 45136.0, 45124.0, 45115.0, 45102.0, 45169.0, 45124.0, 45183.0, 45180.0, 45148.0, 45115.0, 45114.0, 45089.0, 45109.0, 45088.0, 45033.0, 45010.0, 45009.0, 44995.0, 45021.0, 45055.0, 45095.0, 45176.0, 45227.0, 45197.0, 45157.0, 45123.0, 45120.0, 45117.0, 45078.0, 45098.0, 45097.0, 45129.0, 45104.0, 45110.0, 45092.0, 45084.0, 45060.0, 45080.0, 45075.0, 45053.0, 45076.0, 45202.0, 45252.0, 45262.0, 45179.0, 45043.0, 44987.0, 44960.0, 44979.0, 45047.0, 45080.0, 45130.0, 45130.0, 45122.0, 45101.0, 45039.0, 45133.0, 45142.0, 45148.0, 45112.0, 45104.0, 45107.0, 45132.0, 45160.0, 45166.0, 45143.0, 45154.0, 45152.0, 45134.0, 45160.0, 45135.0, 45180.0, 45252.0, 45263.0, 45219.0, 45145.0, 45092.0, 45059.0, 45101.0, 45200.0, 45234.0, 45222.0, 45208.0, 45210.0, 45218.0, 45215.0, 45182.0, 45157.0, 45176.0, 45182.0, 45148.0, 45159.0, 45176.0, 45170.0, 45180.0, 45144.0, 45133.0, 45077.0, 45089.0, 45115.0, 45119.0, 45153.0, 45188.0, 45185.0, 45176.0, 45182.0, 45177.0, 45150.0, 45157.0, 45167.0, 45197.0, 45178.0, 45163.0, 44971.0, 45306.0, 45271.0, 45259.0, 45219.0, 45186.0, 45154.0, 45150.0, 45156.0, 45165.0, 45181.0, 45221.0, 45227.0, 45262.0, 45330.0, 45380.0, 45358.0, 45285.0, 45223.0, 45223.0, 45277.0, 45277.0, 45284.0, 45304.0, 45281.0, 45308.0, 45324.0]
    },
    "slices": {}
  }
}