{
  "AcquisitionMatrixPE": 116,
  "AcquisitionNumber": 1,
  "AcquisitionTime": "18:28:40.135000",
  "BandwidthPerPixelPhaseEncode": 18.539,
  "BaseResolution": 116,
  "BodyPartExamined": "HEAD",
  "ConsistencyInfo": "N4_VD13D_LATEST_20130810",
  "ConversionSoftware": "dcm2niix",
  "ConversionSoftwareVersion": "v1.0.20190410  (JP2:OpenJPEG) (JP-LS:CharLS) GCC5.5.0",
  "DerivedVendorReportedEchoSpacing": 0.000930006,
  "DeviceSerialNumber": "66014",
  "DwellTime": 3e-06,
  "EchoTime": 0.03,
  "EchoTrainLength": 50,
  "EffectiveEchoSpacing": 0.000465003,
  "FlipAngle": 81,
  "ImageComments": "Unaliased_MB3_PE4",
  "ImageOrientationPatientDICOM": [0.998407, -0.0478927, -0.0298326, 0.0470837, 0.998519, -0.0272552],
  "ImageType": [
    "ORIGINAL",
    "PRIMARY",
    "M",
    "MB",
    "ND",
    "MOSAIC"
],
  "ImagingFrequency": 123.261,
  "InPlanePhaseEncodingDirectionDICOM": "COL",
  "InstitutionAddress": "Yiheyuan_Road_5_Beijing_Haidian_CN_100871",
  "InstitutionName": "Peking_University",
  "InstitutionalDepartmentName": "Department",
  "MRAcquisitionType": "2D",
  "MagneticFieldStrength": 3,
  "Manufacturer": "Siemens",
  "ManufacturersModelName": "Prisma",
  "Modality": "MR",
  "MultibandAccelerationFactor": 3,
  "ParallelReductionFactorInPlane": 2,
  "PartialFourier": 0.875,
  "PatientPosition": "HFS",
  "PercentPhaseFOV": 100,
  "PhaseEncodingDirection": "j-",
  "PhaseEncodingSteps": 101,
  "PhaseResolution": 1,
  "PixelBandwidth": 1435,
  "ProcedureStepDescription": "Research_Projects_64CH",
  "ProtocolName": "mbep2d_bold_MB3_learn5",
  "PulseSequenceDetails": "%CustomerSeq%_cmrr_mbep2d_bold",
  "ReceiveCoilActiveElements": "HC1-7",
  "ReceiveCoilName": "HeadNeck_64",
  "ReconMatrixPE": 116,
  "RefLinesPE": 44,
  "RepetitionTime": 2,
  "SAR": 0.0482178,
  "ScanOptions": "PFP_FS",
  "ScanningSequence": "EP",
  "SequenceName": "epfid2d1_116",
  "SequenceVariant": "SK_SS",
  "SeriesDescription": "mbep2d_bold_MB3_learn5",
  "SeriesNumber": 10,
  "ShimSetting": [-3481, -2111, -1977, 371, -78, 14, -1, -5],
  "SliceThickness": 1.9,
  "SliceTiming": [0, 0.9075, 1.815, 0.7425, 1.65, 0.5775, 1.485, 0.4125, 1.32, 0.2475, 1.155, 0.0825, 0.99, 1.8975, 0.825, 1.7325, 0.66, 1.5675, 0.495, 1.4025, 0.33, 1.2375, 0.165, 1.0725, 0, 0.9075, 1.815, 0.7425, 1.65, 0.5775, 1.485, 0.4125, 1.32, 0.2475, 1.155, 0.0825, 0.99, 1.8975, 0.825, 1.7325, 0.66, 1.5675, 0.495, 1.4025, 0.33, 1.2375, 0.165, 1.0725, 0, 0.9075, 1.815, 0.7425, 1.65, 0.5775, 1.485, 0.4125, 1.32, 0.2475, 1.155, 0.0825, 0.99, 1.8975, 0.825, 1.7325, 0.66, 1.5675, 0.495, 1.4025, 0.33, 1.2375, 0.165, 1.0725],
  "SoftwareVersions": "syngo_MR_D13D",
  "SpacingBetweenSlices": 1.9,
  "StationName": "AWP66014",
  "TaskName": "updating",
  "TotalReadoutTime": 0.0534753,
  "TxRefAmp": 220.016,
  "WipMemBlock": "e628ed77-6879-4de2-af6b-082d8ebd733a||Sequence: vd13d/master r/0735857; Nov 19 2014 09:21:40 by eja",
  "dcmmeta_affine": [
    [-1.893530249595642, 0.08929663896560669, -0.059078119695186615, 102.70774841308594],
    [0.0908309668302536, 1.8937430381774902, -0.049033522605895996, -102.5568618774414],
    [-0.05657907575368881, 0.05169083550572395, 1.8984482288360596, -72.29691314697266],
    [0.0, 0.0, 0.0, 1.0]
],
  "dcmmeta_reorient_transform": [
    [0.0, -1.0, 0.0, 115.0],
    [1.0, 0.0, 0.0, 0.0],
    [0.0, 0.0, 1.0, 0.0],
    [0.0, 0.0, 0.0, 1.0]
],
  "dcmmeta_shape": [116, 116, 72, 218],
  "dcmmeta_slice_dim": 2,
  "dcmmeta_version": 0.6,
  "global": {
    "const": {
      "AcquisitionMatrix": [116, 0, 0, 116],
      "AngioFlag": "N",
      "BitsAllocated": 16,
      "BitsStored": 16,
      "BodyPartExamined": "HEAD",
      "Columns": 1044,
      "EchoNumbers": 1,
      "EchoTime": 30.0,
      "EchoTrainLength": 50,
      "FlipAngle": 81.0,
      "HighBit": 15,
      "ImageOrientationPatient": [0.99840688389836, -0.047892691674, -0.0298326041201, 0.04708368189976, 0.9985190447654, -0.0272551672086],
      "ImagePositionPatient": [-1033.0085637278, -951.77477566709, -16.115232116637],
      "ImageType": [
        "ORIGINAL",
        "PRIMARY",
        "M",
        "MB",
        "ND",
        "MOSAIC"
],
      "ImagedNucleus": "1H",
      "ImagingFrequency": 123.260613,
      "InPlanePhaseEncodingDirection": "COL",
      "LargestImagePixelValue": 65535,
      "MRAcquisitionType": "2D",
      "MagneticFieldStrength": 3.0,
      "Manufacturer": "SIEMENS",
      "ManufacturerModelName": "Prisma",
      "Modality": "MR",
      "NumberOfAverages": 1.0,
      "NumberOfPhaseEncodingSteps": 101,
      "PercentPhaseFieldOfView": 100.0,
      "PercentSampling": 100.0,
      "PerformedProcedureStepStartTime": "173833.858000",
      "PhotometricInterpretation": "MONOCHROME2",
      "PixelBandwidth": 1435.0,
      "PixelRepresentation": 0,
      "PixelSpacing": [1.8965517282486, 1.8965517282486],
      "ProtocolName": "mbep2d_bold_MB3_learn5",
      "RepetitionTime": 2000.0,
      "Rows": 1044,
      "SAR": 0.04821779074518,
      "SamplesPerPixel": 1,
      "ScanOptions": [
        "PFP",
        "FS"
],
      "ScanningSequence": "EP",
      "SequenceName": "epfid2d1_116",
      "SequenceVariant": [
        "SK",
        "SS"
],
      "SeriesDescription": "mbep2d_bold_MB3_learn5",
      "SeriesNumber": 10,
      "SeriesTime": "182855.446000",
      "SliceLocation": -72.784740323536,
      "SliceThickness": 1.8999999761581,
      "SmallestImagePixelValue": 0,
      "SoftwareVersions": "syngo MR D13D",
      "SpacingBetweenSlices": 1.900000012611,
      "SpecificCharacterSet": "ISO_IR 100",
      "StudyID": "1",
      "StudyTime": "173833.786000",
      "TimeOfLastCalibration": ["123723.000000", "123723.000000"],
      "TransmitCoilName": "Body",
      "VariableFlipAngleFlag": "N",
      "WindowCenterWidthExplanation": "Algo1",
      "dBdt": 0.0},
    "slices": {}
  },
  "time": {
    "samples": {
      "AcquisitionNumber": [1, 2, 3, 4, 5, 6, 7, 8, 9, 10, 11, 12, 13, 14, 15, 16, 17, 18, 19, 20, 21, 22, 23, 24, 25, 26, 27, 28, 29, 30, 31, 32, 33, 34, 35, 36, 37, 38, 39, 40, 41, 42, 43, 44, 45, 46, 47, 48, 49, 50, 51, 52, 53, 54, 55, 56, 57, 58, 59, 60, 61, 62, 63, 64, 65, 66, 67, 68, 69, 70, 71, 72, 73, 74, 75, 76, 77, 78, 79, 80, 81, 82, 83, 84, 85, 86, 87, 88, 89, 90, 91, 92, 93, 94, 95, 96, 97, 98, 99, 100, 101, 102, 103, 104, 105, 106, 107, 108, 109, 110, 111, 112, 113, 114, 115, 116, 117, 118, 119, 120, 121, 122, 123, 124, 125, 126, 127, 128, 129, 130, 131, 132, 133, 134, 135, 136, 137, 138, 139, 140, 141, 142, 143, 144, 145, 146, 147, 148, 149, 150, 151, 152, 153, 154, 155, 156, 157, 158, 159, 160, 161, 162, 163, 164, 165, 166, 167, 168, 169, 170, 171, 172, 173, 174, 175, 176, 177, 178, 179, 180, 181, 182, 183, 184, 185, 186, 187, 188, 189, 190, 191, 192, 193, 194, 195, 196, 197, 198, 199, 200, 201, 202, 203, 204, 205, 206, 207, 208, 209, 210, 211, 212, 213, 214, 215, 216, 217, 218],
      "AcquisitionTime": ["182840.135000", "182842.135000", "182844.135000", "182846.135000", "182848.135000", "182850.135000", "182852.135000", "182854.135000", "182856.135000", "182858.135000", "182900.135000", "182902.135000", "182904.135000", "182906.135000", "182908.135000", "182910.135000", "182912.135000", "182914.135000", "182916.135000", "182918.135000", "182920.135000", "182922.135000", "182924.135000", "182926.135000", "182928.135000", "182930.135000", "182932.135000", "182934.135000", "182936.135000", "182938.135000", "182940.135000", "182942.135000", "182944.135000", "182946.135000", "182948.135000", "182950.135000", "182952.135000", "182954.135000", "182956.135000", "182958.135000", "183000.135000", "183002.135000", "183004.135000", "183006.135000", "183008.135000", "183010.135000", "183012.135000", "183014.135000", "183016.135000", "183018.135000", "183020.135000", "183022.135000", "183024.135000", "183026.135000", "183028.135000", "183030.135000", "183032.135000", "183034.135000", "183036.135000", "183038.135000", "183040.135000", "183042.135000", "183044.135000", "183046.135000", "183048.135000", "183050.135000", "183052.135000", "183054.135000", "183056.135000", "183058.135000", "183100.135000", "183102.135000", "183104.135000", "183106.135000", "183108.135000", "183110.135000", "183112.135000", "183114.135000", "183116.135000", "183118.135000", "183120.135000", "183122.135000", "183124.135000", "183126.135000", "183128.135000", "183130.135000", "183132.135000", "183134.135000", "183136.135000", "183138.135000", "183140.135000", "183142.135000", "183144.135000", "183146.135000", "183148.135000", "183150.135000", "183152.135000", "183154.135000", "183156.135000", "183158.135000", "183200.135000", "183202.135000", "183204.135000", "183206.135000", "183208.135000", "183210.135000", "183212.135000", "183214.135000", "183216.135000", "183218.135000", "183220.135000", "183222.135000", "183224.135000", "183226.135000", "183228.135000", "183230.135000", "183232.135000", "183234.135000", "183236.135000", "183238.135000", "183240.135000", "183242.135000", "183244.135000", "183246.135000", "183248.135000", "183250.135000", "183252.135000", "183254.135000", "183256.135000", "183258.135000", "183300.135000", "183302.135000", "183304.135000", "183306.135000", "183308.135000", "183310.135000", "183312.135000", "183314.135000", "183316.135000", "183318.135000", "183320.135000", "183322.135000", "183324.135000", "183326.135000", "183328.135000", "183330.135000", "183332.135000", "183334.135000", "183336.135000", "183338.135000", "183340.135000", "183342.135000", "183344.135000", "183346.135000", "183348.135000", "183350.135000", "183352.135000", "183354.135000", "183356.135000", "183358.135000", "183400.135000", "183402.135000", "183404.135000", "183406.135000", "183408.135000", "183410.135000", "183412.135000", "183414.135000", "183416.135000", "183418.135000", "183420.135000", "183422.135000", "183424.135000", "183426.135000", "183428.135000", "183430.135000", "183432.135000", "183434.135000", "183436.135000", "183438.135000", "183440.135000", "183442.135000", "183444.135000", "183446.135000", "183448.135000", "183450.135000", "183452.135000", "183454.135000", "183456.135000", "183458.135000", "183500.135000", "183502.135000", "183504.135000", "183506.135000", "183508.135000", "183510.135000", "183512.135000", "183514.135000", "183516.135000", "183518.135000", "183520.135000", "183522.135000", "183524.135000", "183526.135000", "183528.135000", "183530.135000", "183532.135000", "183534.135000", "183536.135000", "183538.135000", "183540.135000", "183542.135000", "183544.135000", "183546.135000", "183548.135000", "183550.135000", "183552.135000", "183554.135000"],
      "ContentTime": ["182855.451000", "182856.446000", "182857.446000", "182857.451000", "182858.446000", "182859.448000", "182900.447000", "182900.451000", "182901.445000", "182902.446000", "182903.444000", "182905.446000", "182907.445000", "182909.444000", "182911.447000", "182913.445000", "182915.447000", "182917.445000", "182919.445000", "182921.446000", "182923.444000", "182925.445000", "182927.445000", "182929.447000", "182931.447000", "182933.447000", "182935.447000", "182937.446000", "182939.446000", "182941.445000", "182943.445000", "182945.447000", "182947.448000", "182949.446000", "182951.447000", "182953.447000", "182955.446000", "182957.446000", "182959.446000", "183001.445000", "183003.448000", "183005.447000", "183007.447000", "183009.446000", "183011.445000", "183013.446000", "183015.446000", "183017.446000", "183019.446000", "183021.448000", "183023.447000", "183025.447000", "183027.447000", "183029.447000", "183031.446000", "183033.446000", "183035.445000", "183037.445000", "183039.447000", "183041.447000", "183043.447000", "183045.447000", "183047.446000", "183049.446000", "183051.447000", "183053.444000", "183055.447000", "183057.447000", "183059.448000", "183101.447000", "183103.447000", "183105.446000", "183107.446000", "183109.446000", "183111.446000", "183113.448000", "183115.447000", "183117.447000", "183119.445000", "183121.448000", "183123.444000", "183125.446000", "183127.446000", "183129.447000", "183131.447000", "183133.447000", "183135.445000", "183137.447000", "183139.447000", "183141.447000", "183143.446000", "183145.446000", "183147.445000", "183149.447000", "183151.446000", "183153.447000", "183155.447000", "183157.446000", "183159.446000", "183201.447000", "183203.444000", "183205.447000", "183207.447000", "183209.447000", "183211.447000", "183213.445000", "183215.447000", "183217.444000", "183219.445000", "183221.447000", "183223.459000", "183225.447000", "183227.447000", "183229.447000", "183231.447000", "183233.446000", "183235.446000", "183237.446000", "183239.446000", "183241.447000", "183243.447000", "183245.446000", "183247.446000", "183249.446000", "183251.445000", "183253.444000", "183255.446000", "183257.446000", "183259.447000", "183301.447000", "183303.447000", "183305.447000", "183307.447000", "183309.446000", "183311.446000", "183313.445000", "183315.446000", "183317.447000", "183319.447000", "183321.445000", "183323.448000", "183325.445000", "183327.445000", "183329.446000", "183331.446000", "183333.447000", "183335.447000", "183337.447000", "183339.447000", "183341.447000", "183343.447000", "183345.445000", "183347.444000", "183349.446000", "183351.448000", "183353.447000", "183355.447000", "183357.447000", "183359.447000", "183401.444000", "183403.446000", "183405.446000", "183407.446000", "183409.447000", "183411.447000", "183413.448000", "183415.448000", "183417.444000", "183419.447000", "183421.446000", "183423.446000", "183425.447000", "183427.447000", "183429.447000", "183431.445000", "183433.448000", "183435.446000", "183437.446000", "183439.444000", "183441.445000", "183443.445000", "183445.447000", "183447.448000", "183449.447000", "183451.447000", "183453.447000", "183455.446000", "183457.446000", "183459.446000", "183501.447000", "183503.447000", "183505.447000", "183507.447000", "183509.445000", "183511.446000", "183513.446000", "183515.446000", "183517.447000", "183519.458000", "183521.447000", "183523.447000", "183525.447000", "183527.446000", "183529.445000", "183531.446000", "183533.446000", "183535.447000", "183537.447000", "183539.447000", "183541.447000", "183543.447000", "183545.446000", "183547.446000", "183549.446000", "183551.446000", "183553.447000", "183555.447000", "183556.950000"],
      "InstanceCreationTime": ["182855.451000", "182856.446000", "182857.446000", "182857.451000", "182858.446000", "182859.448000", "182900.447000", "182900.451000", "182901.445000", "182902.446000", "182903.444000", "182905.446000", "182907.445000", "182909.444000", "182911.447000", "182913.445000", "182915.447000", "182917.445000", "182919.445000", "182921.446000", "182923.444000", "182925.445000", "182927.445000", "182929.447000", "182931.447000", "182933.447000", "182935.447000", "182937.446000", "182939.446000", "182941.445000", "182943.445000", "182945.447000", "182947.448000", "182949.446000", "182951.447000", "182953.447000", "182955.446000", "182957.446000", "182959.446000", "183001.445000", "183003.448000", "183005.447000", "183007.447000", "183009.446000", "183011.445000", "183013.446000", "183015.446000", "183017.446000", "183019.446000", "183021.448000", "183023.447000", "183025.447000", "183027.447000", "183029.447000", "183031.446000", "183033.446000", "183035.445000", "183037.445000", "183039.447000", "183041.447000", "183043.447000", "183045.447000", "183047.446000", "183049.446000", "183051.447000", "183053.444000", "183055.447000", "183057.447000", "183059.448000", "183101.447000", "183103.447000", "183105.446000", "183107.446000", "183109.446000", "183111.446000", "183113.448000", "183115.447000", "183117.447000", "183119.445000", "183121.448000", "183123.444000", "183125.446000", "183127.446000", "183129.447000", "183131.447000", "183133.447000", "183135.445000", "183137.447000", "183139.447000", "183141.447000", "183143.446000", "183145.446000", "183147.445000", "183149.447000", "183151.446000", "183153.447000", "183155.447000", "183157.446000", "183159.446000", "183201.447000", "183203.444000", "183205.447000", "183207.447000", "183209.447000", "183211.447000", "183213.445000", "183215.447000", "183217.444000", "183219.445000", "183221.447000", "183223.459000", "183225.447000", "183227.447000", "183229.447000", "183231.447000", "183233.446000", "183235.446000", "183237.446000", "183239.446000", "183241.447000", "183243.447000", "183245.446000", "183247.446000", "183249.446000", "183251.445000", "183253.444000", "183255.446000", "183257.446000", "183259.447000", "183301.447000", "183303.447000", "183305.447000", "183307.447000", "183309.446000", "183311.446000", "183313.445000", "183315.446000", "183317.447000", "183319.447000", "183321.445000", "183323.448000", "183325.445000", "183327.445000", "183329.446000", "183331.446000", "183333.447000", "183335.447000", "183337.447000", "183339.447000", "183341.447000", "183343.447000", "183345.445000", "183347.444000", "183349.446000", "183351.448000", "183353.447000", "183355.447000", "183357.447000", "183359.447000", "183401.444000", "183403.446000", "183405.446000", "183407.446000", "183409.447000", "183411.447000", "183413.448000", "183415.448000", "183417.444000", "183419.447000", "183421.446000", "183423.446000", "183425.447000", "183427.447000", "183429.447000", "183431.445000", "183433.448000", "183435.446000", "183437.446000", "183439.444000", "183441.445000", "183443.445000", "183445.447000", "183447.448000", "183449.447000", "183451.447000", "183453.447000", "183455.446000", "183457.446000", "183459.446000", "183501.447000", "183503.447000", "183505.447000", "183507.447000", "183509.445000", "183511.446000", "183513.446000", "183515.446000", "183517.447000", "183519.458000", "183521.447000", "183523.447000", "183525.447000", "183527.446000", "183529.445000", "183531.446000", "183533.446000", "183535.447000", "183537.447000", "183539.447000", "183541.447000", "183543.447000", "183545.446000", "183547.446000", "183549.446000", "183551.446000", "183553.447000", "183555.447000", "183556.950000"],
      "InstanceNumber": [1, 2, 3, 4, 5, 6, 7, 8, 9, 10, 11, 12, 13, 14, 15, 16, 17, 18, 19, 20, 21, 22, 23, 24, 25, 26, 27, 28, 29, 30, 31, 32, 33, 34, 35, 36, 37, 38, 39, 40, 41, 42, 43, 44, 45, 46, 47, 48, 49, 50, 51, 52, 53, 54, 55, 56, 57, 58, 59, 60, 61, 62, 63, 64, 65, 66, 67, 68, 69, 70, 71, 72, 73, 74, 75, 76, 77, 78, 79, 80, 81, 82, 83, 84, 85, 86, 87, 88, 89, 90, 91, 92, 93, 94, 95, 96, 97, 98, 99, 100, 101, 102, 103, 104, 105, 106, 107, 108, 109, 110, 111, 112, 113, 114, 115, 116, 117, 118, 119, 120, 121, 122, 123, 124, 125, 126, 127, 128, 129, 130, 131, 132, 133, 134, 135, 136, 137, 138, 139, 140, 141, 142, 143, 144, 145, 146, 147, 148, 149, 150, 151, 152, 153, 154, 155, 156, 157, 158, 159, 160, 161, 162, 163, 164, 165, 166, 167, 168, 169, 170, 171, 172, 173, 174, 175, 176, 177, 178, 179, 180, 181, 182, 183, 184, 185, 186, 187, 188, 189, 190, 191, 192, 193, 194, 195, 196, 197, 198, 199, 200, 201, 202, 203, 204, 205, 206, 207, 208, 209, 210, 211, 212, 213, 214, 215, 216, 217, 218],
      "WindowCenter": [16606.0, 16592.0, 16588.0, 16597.0, 16611.0, 16612.0, 16586.0, 16576.0, 16577.0, 16553.0, 16560.0, 16558.0, 16563.0, 16571.0, 16562.0, 16562.0, 16568.0, 16558.0, 16559.0, 16591.0, 16602.0, 16594.0, 16583.0, 16559.0, 16572.0, 16559.0, 16555.0, 16588.0, 16610.0, 16606.0, 16595.0, 16582.0, 16562.0, 16556.0, 16556.0, 16555.0, 16569.0, 16580.0, 16583.0, 16573.0, 16581.0, 16572.0, 16575.0, 16579.0, 16578.0, 16607.0, 16606.0, 16606.0, 16584.0, 16584.0, 16573.0, 16569.0, 16580.0, 16583.0, 16584.0, 16570.0, 16564.0, 16581.0, 16582.0, 16589.0, 16584.0, 16584.0, 16576.0, 16573.0, 16580.0, 16578.0, 16572.0, 16580.0, 16582.0, 16581.0, 16591.0, 16581.0, 16572.0, 16621.0, 16628.0, 16613.0, 16612.0, 16598.0, 16610.0, 16596.0, 16602.0, 16613.0, 16606.0, 16624.0, 16630.0, 16609.0, 16603.0, 16613.0, 16598.0, 16606.0, 16626.0, 16631.0, 16618.0, 16606.0, 16594.0, 16591.0, 16581.0, 16583.0, 16583.0, 16582.0, 16580.0, 16583.0, 16599.0, 16580.0, 16578.0, 16567.0, 16576.0, 16590.0, 16576.0, 16578.0, 16595.0, 16610.0, 16612.0, 16604.0, 16593.0, 16587.0, 16594.0, 16608.0, 16577.0, 16586.0, 16597.0, 16591.0, 16606.0, 16585.0, 16585.0, 16572.0, 16583.0, 16577.0, 16595.0, 16594.0, 16603.0, 16615.0, 16598.0, 16597.0, 16601.0, 16596.0, 16615.0, 16611.0, 16600.0, 16611.0, 16610.0, 16617.0, 16627.0, 16607.0, 16604.0, 16615.0, 16614.0, 16623.0, 16623.0, 16594.0, 16588.0, 16592.0, 16604.0, 16596.0, 16592.0, 16636.0, 16629.0, 16635.0, 16644.0, 16628.0, 16636.0, 16630.0, 16627.0, 16624.0, 16626.0, 16627.0, 16606.0, 16612.0, 16612.0, 16627.0, 16614.0, 16627.0, 16616.0, 16606.0, 16605.0, 16618.0, 16628.0, 16626.0, 16625.0, 16635.0, 16634.0, 16639.0, 16628.0, 16635.0, 16609.0, 16614.0, 16625.0, 16630.0, 16629.0, 16616.0, 16606.0, 16621.0, 16621.0, 16631.0, 16613.0, 16619.0, 16614.0, 16631.0, 16641.0, 16631.0, 16634.0, 16617.0, 16621.0, 16614.0, 16602.0, 16610.0, 16619.0, 16625.0, 16629.0, 16583.0, 16613.0, 16634.0, 16648.0, 16636.0, 16612.0, 16611.0, 16611.0, 16625.0],
      "WindowWidth": [45250.0, 45201.0, 45304.0, 45395.0, 45380.0, 45299.0, 45222.0, 45173.0, 45149.0, 45127.0, 45118.0, 45092.0, 45110.0, 45129.0, 45176.0, 45188.0, 45155.0, 45135.0, 45162.0, 45162.0, 45147.0, 45126.0, 45130.0, 45121.0, 45093.0, 45067.0, 45092.0, 45163.0, 45210.0, 45233.0, 45170.0, 45104.0, 45071.0, 45092.0, 45090.0, 45104.0, 45115.0, 45140.0, 45156.0, 45161.0, 45165.0, 45172.0, 45176.0, 45192.0, 45219.0, 45195.0, 45247.0, 45260.0, 45242.0, 45214.0, 45216.0, 45187.0, 45183.0, 45186.0, 45173.0, 45158.0, 45180.0, 45195.0, 45209.0, 45231.0, 45225.0, 45199.0, 45192.0, 45175.0, 45169.0, 45155.0, 45202.0, 45208.0, 45251.0, 45224.0, 45233.0, 45225.0, 45219.0, 45356.0, 45309.0, 45240.0, 45171.0, 45144.0, 45128.0, 45170.0, 45189.0, 45212.0, 45233.0, 45263.0, 45241.0, 45237.0, 45230.0, 45256.0, 45186.0, 45357.0, 45441.0, 45415.0, 45310.0, 45258.0, 45209.0, 45165.0, 45171.0, 45144.0, 45172.0, 45170.0, 45184.0, 45186.0, 45188.0, 45195.0, 45155.0, 45143.0, 45138.0, 45123.0, 45140.0, 45182.0, 45225.0, 45237.0, 45241.0, 45234.0, 45251.0, 45228.0, 45208.0, 45168.0, 45194.0, 45173.0, 45156.0, 45179.0, 45165.0, 45133.0, 45106.0, 45121.0, 45092.0, 45113.0, 45141.0, 45181.0, 45203.0, 45213.0, 45251.0, 45240.0, 45231.0, 45212.0, 45270.0, 45268.0, 45322.0, 45320.0, 45332.0, 45302.0, 45254.0, 45238.0, 45232.0, 45243.0, 45254.0, 45236.0, 45212.0, 45210.0, 45163.0, 45127.0, 45098.0, 45093.0, 45090.0, 45237.0, 45267.0, 45247.0, 45218.0, 45241.0, 45208.0, 45230.0, 45240.0, 45249.0, 45237.0, 45186.0, 45194.0, 45187.0, 45227.0, 45253.0, 45256.0, 45226.0, 45177.0, 45139.0, 45153.0, 45191.0, 45213.0, 45212.0, 45211.0, 45233.0, 45231.0, 45235.0, 45253.0, 45206.0, 45182.0, 45201.0, 45237.0, 45255.0, 45251.0, 45202.0, 45219.0, 45247.0, 45247.0, 45230.0, 45254.0, 45259.0, 45281.0, 45284.0, 45266.0, 45270.0, 45232.0, 45215.0, 45180.0, 45147.0, 45123.0, 45117.0, 45164.0, 45210.0, 45213.0, 45136.0, 45361.0, 45258.0, 45220.0, 45182.0, 45051.0, 45117.0, 45180.0, 45158.0]
    },
    "slices": {}
  }
}