{
  "AcquisitionMatrixPE": 116,
  "AcquisitionNumber": 1,
  "AcquisitionTime": "14:43:51.232500",
  "BandwidthPerPixelPhaseEncode": 18.539,
  "BaseResolution": 116,
  "BodyPartExamined": "HEAD",
  "ConsistencyInfo": "N4_VD13D_LATEST_20130810",
  "ConversionSoftware": "dcm2niix",
  "ConversionSoftwareVersion": "v1.0.20190410  (JP2:OpenJPEG) (JP-LS:CharLS) GCC5.5.0",
  "DerivedVendorReportedEchoSpacing": 0.000930006,
  "DeviceSerialNumber": "66014",
  "DwellTime": 3e-06,
  "EchoTime": 0.03,
  "EchoTrainLength": 50,
  "EffectiveEchoSpacing": 0.000465003,
  "FlipAngle": 81,
  "ImageComments": "Unaliased_MB3_PE4",
  "ImageOrientationPatientDICOM": [0.999945, -0.00465458, 0.00940713, 0.00349048, 0.992746, 0.120179],
  "ImageType": [
    "ORIGINAL",
    "PRIMARY",
    "M",
    "MB",
    "ND",
    "MOSAIC"
],
  "ImagingFrequency": 123.261,
  "InPlanePhaseEncodingDirectionDICOM": "COL",
  "InstitutionAddress": "Yiheyuan_Road_5_Beijing_Haidian_CN_100871",
  "InstitutionName": "Peking_University",
  "InstitutionalDepartmentName": "Department",
  "MRAcquisitionType": "2D",
  "MagneticFieldStrength": 3,
  "Manufacturer": "Siemens",
  "ManufacturersModelName": "Prisma",
  "Modality": "MR",
  "MultibandAccelerationFactor": 3,
  "ParallelReductionFactorInPlane": 2,
  "PartialFourier": 0.875,
  "PatientPosition": "HFS",
  "PercentPhaseFOV": 100,
  "PhaseEncodingDirection": "j-",
  "PhaseEncodingSteps": 101,
  "PhaseResolution": 1,
  "PixelBandwidth": 1435,
  "ProcedureStepDescription": "Research_Projects_64CH",
  "ProtocolName": "mbep2d_bold_MB3_learn4",
  "PulseSequenceDetails": "%CustomerSeq%_cmrr_mbep2d_bold",
  "ReceiveCoilActiveElements": "HC1-7",
  "ReceiveCoilName": "HeadNeck_64",
  "ReconMatrixPE": 116,
  "RefLinesPE": 44,
  "RepetitionTime": 2,
  "SAR": 0.0653177,
  "ScanOptions": "PFP_FS",
  "ScanningSequence": "EP",
  "SequenceName": "epfid2d1_116",
  "SequenceVariant": "SK_SS",
  "SeriesDescription": "mbep2d_bold_MB3_learn4",
  "SeriesNumber": 9,
  "ShimSetting": [-3461, -2105, -1987, 428, -15, -242, 58, 27],
  "SliceThickness": 1.9,
  "SliceTiming": [0, 0.9075, 1.815, 0.7425, 1.65, 0.5775, 1.485, 0.4125, 1.32, 0.2475, 1.155, 0.0825, 0.99, 1.8975, 0.825, 1.7325, 0.66, 1.5675, 0.495, 1.4025, 0.33, 1.2375, 0.165, 1.0725, 0, 0.9075, 1.815, 0.7425, 1.65, 0.5775, 1.485, 0.4125, 1.32, 0.2475, 1.155, 0.0825, 0.99, 1.8975, 0.825, 1.7325, 0.66, 1.5675, 0.495, 1.4025, 0.33, 1.2375, 0.165, 1.0725, 0, 0.9075, 1.815, 0.7425, 1.65, 0.5775, 1.485, 0.4125, 1.32, 0.2475, 1.155, 0.0825, 0.99, 1.8975, 0.825, 1.7325, 0.66, 1.5675, 0.495, 1.4025, 0.33, 1.2375, 0.165, 1.0725],
  "SoftwareVersions": "syngo_MR_D13D",
  "SpacingBetweenSlices": 1.9,
  "StationName": "AWP66014",
  "TaskName": "updating",
  "TotalReadoutTime": 0.0534753,
  "TxRefAmp": 231.954,
  "WipMemBlock": "44392d33-4c80-4e1e-a00c-16b845144132||Sequence: vd13d/master r/0735857; Nov 19 2014 09:21:40 by eja",
  "dcmmeta_affine": [
    [-1.8964473009109497, 0.006619870197027922, 0.018806708976626396, 108.74653625488281],
    [0.008827658370137215, 1.8827943801879883, 0.22826433181762695, -102.7679443359375],
    [0.017841098830103874, -0.2279248982667923, 1.8861446380615234, -50.14541244506836],
    [0.0, 0.0, 0.0, 1.0]
],
  "dcmmeta_reorient_transform": [
    [0.0, -1.0, 0.0, 115.0],
    [1.0, 0.0, 0.0, 0.0],
    [0.0, 0.0, 1.0, 0.0],
    [0.0, 0.0, 0.0, 1.0]
],
  "dcmmeta_shape": [116, 116, 72, 218],
  "dcmmeta_slice_dim": 2,
  "dcmmeta_version": 0.6,
  "global": {
    "const": {
      "AcquisitionMatrix": [116, 0, 0, 116],
      "AngioFlag": "N",
      "BitsAllocated": 16,
      "BitsStored": 16,
      "BodyPartExamined": "HEAD",
      "Columns": 1044,
      "EchoNumbers": 1,
      "EchoTime": 30.0,
      "EchoTrainLength": 50,
      "FlipAngle": 81.0,
      "HighBit": 15,
      "ImageOrientationPatient": [0.99994491890984, -0.0046545833326, 0.00940712497988, 0.00349047700847, 0.99274615324514, 0.12017858289743],
      "ImagePositionPatient": [-992.53097359521, -983.27400224273, -190.39219940423],
      "ImageType": [
        "ORIGINAL",
        "PRIMARY",
        "M",
        "MB",
        "ND",
        "MOSAIC"
],
      "ImagedNucleus": "1H",
      "ImagingFrequency": 123.260582,
      "InPlanePhaseEncodingDirection": "COL",
      "LargestImagePixelValue": 65535,
      "MRAcquisitionType": "2D",
      "MagneticFieldStrength": 3.0,
      "Manufacturer": "SIEMENS",
      "ManufacturerModelName": "Prisma",
      "Modality": "MR",
      "NumberOfAverages": 1.0,
      "NumberOfPhaseEncodingSteps": 101,
      "PercentPhaseFieldOfView": 100.0,
      "PercentSampling": 100.0,
      "PerformedProcedureStepStartTime": "140236.613000",
      "PhotometricInterpretation": "MONOCHROME2",
      "PixelBandwidth": 1435.0,
      "PixelRepresentation": 0,
      "PixelSpacing": [1.8965517282486, 1.8965517282486],
      "ProtocolName": "mbep2d_bold_MB3_learn4",
      "RepetitionTime": 2000.0,
      "Rows": 1044,
      "SAR": 0.06531775276571,
      "SamplesPerPixel": 1,
      "ScanOptions": [
        "PFP",
        "FS"
],
      "ScanningSequence": "EP",
      "SequenceName": "epfid2d1_116",
      "SequenceVariant": [
        "SK",
        "SS"
],
      "SeriesDescription": "mbep2d_bold_MB3_learn4",
      "SeriesNumber": 9,
      "SeriesTime": "144406.551000",
      "SliceLocation": -61.049786746216,
      "SliceThickness": 1.8999999761581,
      "SmallestImagePixelValue": 0,
      "SoftwareVersions": "syngo MR D13D",
      "SpacingBetweenSlices": 1.8999999443453,
      "SpecificCharacterSet": "ISO_IR 100",
      "StudyID": "1",
      "StudyTime": "140236.536000",
      "TimeOfLastCalibration": ["123723.000000", "123723.000000"],
      "TransmitCoilName": "Body",
      "VariableFlipAngleFlag": "N",
      "WindowCenterWidthExplanation": "Algo1",
      "dBdt": 0.0},
    "slices": {}
  },
  "time": {
    "samples": {
      "AcquisitionNumber": [1, 2, 3, 4, 5, 6, 7, 8, 9, 10, 11, 12, 13, 14, 15, 16, 17, 18, 19, 20, 21, 22, 23, 24, 25, 26, 27, 28, 29, 30, 31, 32, 33, 34, 35, 36, 37, 38, 39, 40, 41, 42, 43, 44, 45, 46, 47, 48, 49, 50, 51, 52, 53, 54, 55, 56, 57, 58, 59, 60, 61, 62, 63, 64, 65, 66, 67, 68, 69, 70, 71, 72, 73, 74, 75, 76, 77, 78, 79, 80, 81, 82, 83, 84, 85, 86, 87, 88, 89, 90, 91, 92, 93, 94, 95, 96, 97, 98, 99, 100, 101, 102, 103, 104, 105, 106, 107, 108, 109, 110, 111, 112, 113, 114, 115, 116, 117, 118, 119, 120, 121, 122, 123, 124, 125, 126, 127, 128, 129, 130, 131, 132, 133, 134, 135, 136, 137, 138, 139, 140, 141, 142, 143, 144, 145, 146, 147, 148, 149, 150, 151, 152, 153, 154, 155, 156, 157, 158, 159, 160, 161, 162, 163, 164, 165, 166, 167, 168, 169, 170, 171, 172, 173, 174, 175, 176, 177, 178, 179, 180, 181, 182, 183, 184, 185, 186, 187, 188, 189, 190, 191, 192, 193, 194, 195, 196, 197, 198, 199, 200, 201, 202, 203, 204, 205, 206, 207, 208, 209, 210, 211, 212, 213, 214, 215, 216, 217, 218],
      "AcquisitionTime": ["144351.232500", "144353.232500", "144355.232500", "144357.232500", "144359.232500", "144401.232500", "144403.232500", "144405.232500", "144407.232500", "144409.232500", "144411.232500", "144413.232500", "144415.232500", "144417.232500", "144419.232500", "144421.232500", "144423.232500", "144425.232500", "144427.232500", "144429.232500", "144431.232500", "144433.232500", "144435.232500", "144437.232500", "144439.232500", "144441.232500", "144443.232500", "144445.232500", "144447.232500", "144449.232500", "144451.232500", "144453.232500", "144455.232500", "144457.232500", "144459.232500", "144501.232500", "144503.232500", "144505.232500", "144507.232500", "144509.232500", "144511.232500", "144513.232500", "144515.232500", "144517.232500", "144519.232500", "144521.232500", "144523.232500", "144525.232500", "144527.232500", "144529.232500", "144531.232500", "144533.232500", "144535.232500", "144537.232500", "144539.232500", "144541.232500", "144543.232500", "144545.232500", "144547.232500", "144549.232500", "144551.232500", "144553.232500", "144555.232500", "144557.232500", "144559.232500", "144601.232500", "144603.232500", "144605.232500", "144607.232500", "144609.232500", "144611.232500", "144613.232500", "144615.232500", "144617.232500", "144619.232500", "144621.232500", "144623.232500", "144625.232500", "144627.232500", "144629.232500", "144631.232500", "144633.232500", "144635.232500", "144637.232500", "144639.232500", "144641.232500", "144643.232500", "144645.232500", "144647.232500", "144649.232500", "144651.232500", "144653.232500", "144655.232500", "144657.232500", "144659.232500", "144701.232500", "144703.232500", "144705.232500", "144707.232500", "144709.232500", "144711.232500", "144713.232500", "144715.232500", "144717.232500", "144719.232500", "144721.232500", "144723.232500", "144725.232500", "144727.232500", "144729.232500", "144731.235000", "144733.235000", "144735.235000", "144737.235000", "144739.235000", "144741.235000", "144743.235000", "144745.235000", "144747.235000", "144749.235000", "144751.235000", "144753.235000", "144755.235000", "144757.235000", "144759.235000", "144801.235000", "144803.235000", "144805.235000", "144807.235000", "144809.235000", "144811.235000", "144813.235000", "144815.235000", "144817.235000", "144819.235000", "144821.235000", "144823.235000", "144825.235000", "144827.235000", "144829.235000", "144831.235000", "144833.235000", "144835.235000", "144837.235000", "144839.235000", "144841.235000", "144843.235000", "144845.235000", "144847.235000", "144849.235000", "144851.235000", "144853.235000", "144855.235000", "144857.235000", "144859.235000", "144901.235000", "144903.235000", "144905.235000", "144907.235000", "144909.235000", "144911.235000", "144913.235000", "144915.235000", "144917.235000", "144919.235000", "144921.235000", "144923.235000", "144925.235000", "144927.235000", "144929.235000", "144931.235000", "144933.235000", "144935.235000", "144937.235000", "144939.235000", "144941.235000", "144943.235000", "144945.235000", "144947.235000", "144949.235000", "144951.235000", "144953.235000", "144955.235000", "144957.235000", "144959.235000", "145001.235000", "145003.235000", "145005.235000", "145007.235000", "145009.235000", "145011.235000", "145013.235000", "145015.235000", "145017.235000", "145019.235000", "145021.235000", "145023.235000", "145025.235000", "145027.235000", "145029.235000", "145031.235000", "145033.235000", "145035.235000", "145037.235000", "145039.235000", "145041.235000", "145043.235000", "145045.235000", "145047.235000", "145049.235000", "145051.235000", "145053.235000", "145055.235000", "145057.235000", "145059.235000", "145101.235000", "145103.235000", "145105.235000"],
      "ContentTime": ["144406.557000", "144407.549000", "144408.549000", "144408.553000", "144409.549000", "144410.550000", "144411.549000", "144411.553000", "144412.548000", "144413.550000", "144414.551000", "144416.551000", "144418.550000", "144420.550000", "144422.550000", "144424.550000", "144426.550000", "144428.550000", "144430.551000", "144432.551000", "144434.550000", "144436.550000", "144438.551000", "144440.550000", "144442.550000", "144444.550000", "144446.550000", "144448.551000", "144450.551000", "144452.550000", "144454.550000", "144456.550000", "144458.550000", "144500.550000", "144502.550000", "144504.550000", "144506.551000", "144508.552000", "144510.550000", "144512.549000", "144514.550000", "144516.550000", "144518.550000", "144520.550000", "144522.550000", "144524.552000", "144526.551000", "144528.550000", "144530.550000", "144532.550000", "144534.550000", "144536.550000", "144538.550000", "144540.549000", "144542.551000", "144544.549000", "144546.550000", "144548.550000", "144550.550000", "144552.549000", "144554.551000", "144556.550000", "144558.551000", "144600.551000", "144602.550000", "144604.550000", "144606.550000", "144608.551000", "144610.550000", "144612.550000", "144614.550000", "144616.551000", "144618.551000", "144620.550000", "144622.550000", "144624.550000", "144626.550000", "144628.550000", "144630.551000", "144632.550000", "144634.551000", "144636.551000", "144638.550000", "144640.551000", "144642.550000", "144644.550000", "144646.550000", "144648.550000", "144650.551000", "144652.551000", "144654.550000", "144656.550000", "144658.550000", "144700.550000", "144702.550000", "144704.550000", "144706.550000", "144708.551000", "144710.551000", "144712.550000", "144714.550000", "144716.550000", "144718.550000", "144720.550000", "144722.550000", "144724.550000", "144726.551000", "144728.551000", "144730.550000", "144732.550000", "144734.559000", "144736.550000", "144738.550000", "144740.550000", "144742.550000", "144744.551000", "144746.551000", "144748.550000", "144750.551000", "144752.550000", "144754.550000", "144756.550000", "144758.550000", "144800.551000", "144802.551000", "144804.549000", "144806.550000", "144808.550000", "144810.550000", "144812.550000", "144814.550000", "144816.550000", "144818.550000", "144820.551000", "144822.550000", "144824.550000", "144826.550000", "144828.549000", "144830.550000", "144832.550000", "144834.550000", "144836.551000", "144838.551000", "144840.549000", "144842.549000", "144844.550000", "144846.550000", "144848.550000", "144850.550000", "144852.550000", "144854.551000", "144856.551000", "144858.550000", "144900.550000", "144902.548000", "144904.550000", "144906.550000", "144908.549000", "144910.551000", "144912.551000", "144914.550000", "144916.550000", "144918.549000", "144920.550000", "144922.550000", "144924.550000", "144926.551000", "144928.551000", "144930.551000", "144932.550000", "144934.550000", "144936.550000", "144938.550000", "144940.550000", "144942.549000", "144944.550000", "144946.550000", "144948.551000", "144950.550000", "144952.550000", "144954.550000", "144956.550000", "144958.550000", "145000.550000", "145002.550000", "145004.551000", "145006.551000", "145008.550000", "145010.550000", "145012.551000", "145014.550000", "145016.550000", "145018.550000", "145020.551000", "145022.551000", "145024.549000", "145026.551000", "145028.550000", "145030.550000", "145032.550000", "145034.550000", "145036.550000", "145038.551000", "145040.551000", "145042.550000", "145044.550000", "145046.550000", "145048.550000", "145050.550000", "145052.550000", "145054.550000", "145056.551000", "145058.552000", "145100.550000", "145102.550000", "145104.550000", "145106.550000", "145108.121000"],
      "InstanceCreationTime": ["144406.557000", "144407.549000", "144408.549000", "144408.553000", "144409.549000", "144410.550000", "144411.549000", "144411.553000", "144412.548000", "144413.550000", "144414.551000", "144416.551000", "144418.550000", "144420.550000", "144422.550000", "144424.550000", "144426.550000", "144428.550000", "144430.551000", "144432.551000", "144434.550000", "144436.550000", "144438.551000", "144440.550000", "144442.550000", "144444.550000", "144446.550000", "144448.551000", "144450.551000", "144452.550000", "144454.550000", "144456.550000", "144458.550000", "144500.550000", "144502.550000", "144504.550000", "144506.551000", "144508.552000", "144510.550000", "144512.549000", "144514.550000", "144516.550000", "144518.550000", "144520.550000", "144522.550000", "144524.552000", "144526.551000", "144528.550000", "144530.550000", "144532.550000", "144534.550000", "144536.550000", "144538.550000", "144540.549000", "144542.551000", "144544.549000", "144546.550000", "144548.550000", "144550.550000", "144552.549000", "144554.551000", "144556.550000", "144558.551000", "144600.551000", "144602.550000", "144604.550000", "144606.550000", "144608.551000", "144610.550000", "144612.550000", "144614.550000", "144616.551000", "144618.551000", "144620.550000", "144622.550000", "144624.550000", "144626.550000", "144628.550000", "144630.551000", "144632.550000", "144634.551000", "144636.551000", "144638.550000", "144640.551000", "144642.550000", "144644.550000", "144646.550000", "144648.550000", "144650.551000", "144652.551000", "144654.550000", "144656.550000", "144658.550000", "144700.550000", "144702.550000", "144704.550000", "144706.550000", "144708.551000", "144710.551000", "144712.550000", "144714.550000", "144716.550000", "144718.550000", "144720.550000", "144722.550000", "144724.550000", "144726.551000", "144728.551000", "144730.550000", "144732.550000", "144734.559000", "144736.550000", "144738.550000", "144740.550000", "144742.550000", "144744.551000", "144746.551000", "144748.550000", "144750.551000", "144752.550000", "144754.550000", "144756.550000", "144758.550000", "144800.551000", "144802.551000", "144804.549000", "144806.550000", "144808.550000", "144810.550000", "144812.550000", "144814.550000", "144816.550000", "144818.550000", "144820.551000", "144822.550000", "144824.550000", "144826.550000", "144828.549000", "144830.550000", "144832.550000", "144834.550000", "144836.551000", "144838.551000", "144840.549000", "144842.549000", "144844.550000", "144846.550000", "144848.550000", "144850.550000", "144852.550000", "144854.551000", "144856.551000", "144858.550000", "144900.550000", "144902.548000", "144904.550000", "144906.550000", "144908.549000", "144910.551000", "144912.551000", "144914.550000", "144916.550000", "144918.549000", "144920.550000", "144922.550000", "144924.550000", "144926.551000", "144928.551000", "144930.551000", "144932.550000", "144934.550000", "144936.550000", "144938.550000", "144940.550000", "144942.549000", "144944.550000", "144946.550000", "144948.551000", "144950.550000", "144952.550000", "144954.550000", "144956.550000", "144958.550000", "145000.550000", "145002.550000", "145004.551000", "145006.551000", "145008.550000", "145010.550000", "145012.551000", "145014.550000", "145016.550000", "145018.550000", "145020.551000", "145022.551000", "145024.549000", "145026.551000", "145028.550000", "145030.550000", "145032.550000", "145034.550000", "145036.550000", "145038.551000", "145040.551000", "145042.550000", "145044.550000", "145046.550000", "145048.550000", "145050.550000", "145052.550000", "145054.550000", "145056.551000", "145058.552000", "145100.550000", "145102.550000", "145104.550000", "145106.550000", "145108.121000"],
      "InstanceNumber": [1, 2, 3, 4, 5, 6, 7, 8, 9, 10, 11, 12, 13, 14, 15, 16, 17, 18, 19, 20, 21, 22, 23, 24, 25, 26, 27, 28, 29, 30, 31, 32, 33, 34, 35, 36, 37, 38, 39, 40, 41, 42, 43, 44, 45, 46, 47, 48, 49, 50, 51, 52, 53, 54, 55, 56, 57, 58, 59, 60, 61, 62, 63, 64, 65, 66, 67, 68, 69, 70, 71, 72, 73, 74, 75, 76, 77, 78, 79, 80, 81, 82, 83, 84, 85, 86, 87, 88, 89, 90, 91, 92, 93, 94, 95, 96, 97, 98, 99, 100, 101, 102, 103, 104, 105, 106, 107, 108, 109, 110, 111, 112, 113, 114, 115, 116, 117, 118, 119, 120, 121, 122, 123, 124, 125, 126, 127, 128, 129, 130, 131, 132, 133, 134, 135, 136, 137, 138, 139, 140, 141, 142, 143, 144, 145, 146, 147, 148, 149, 150, 151, 152, 153, 154, 155, 156, 157, 158, 159, 160, 161, 162, 163, 164, 165, 166, 167, 168, 169, 170, 171, 172, 173, 174, 175, 176, 177, 178, 179, 180, 181, 182, 183, 184, 185, 186, 187, 188, 189, 190, 191, 192, 193, 194, 195, 196, 197, 198, 199, 200, 201, 202, 203, 204, 205, 206, 207, 208, 209, 210, 211, 212, 213, 214, 215, 216, 217, 218],
      "WindowCenter": [18189.0, 18141.0, 18129.0, 18162.0, 18148.0, 18134.0, 18130.0, 18110.0, 18123.0, 18109.0, 18120.0, 18127.0, 18116.0, 18120.0, 18101.0, 18108.0, 18115.0, 18101.0, 18108.0, 18093.0, 18099.0, 18100.0, 18100.0, 18108.0, 18117.0, 18138.0, 18144.0, 18126.0, 18107.0, 18089.0, 18103.0, 18114.0, 18122.0, 18110.0, 18121.0, 18123.0, 18111.0, 18123.0, 18116.0, 18119.0, 18137.0, 18121.0, 18122.0, 18132.0, 18121.0, 18119.0, 18106.0, 18118.0, 18111.0, 18124.0, 18116.0, 18106.0, 18120.0, 18113.0, 18099.0, 18114.0, 18115.0, 18105.0, 18108.0, 18099.0, 18113.0, 18118.0, 18123.0, 18120.0, 18108.0, 18101.0, 18095.0, 18095.0, 18084.0, 18083.0, 18084.0, 18074.0, 18074.0, 18091.0, 18098.0, 18106.0, 18103.0, 18113.0, 18104.0, 18116.0, 18122.0, 18119.0, 18120.0, 18126.0, 18128.0, 18116.0, 18113.0, 18102.0, 18099.0, 18095.0, 18107.0, 18124.0, 18110.0, 18111.0, 18102.0, 18112.0, 18130.0, 18128.0, 18145.0, 18156.0, 18143.0, 18128.0, 18087.0, 18172.0, 18147.0, 18138.0, 18089.0, 18012.0, 17989.0, 17995.0, 18025.0, 18068.0, 18096.0, 18105.0, 18109.0, 18113.0, 18158.0, 18120.0, 18154.0, 18151.0, 18120.0, 18112.0, 18105.0, 18110.0, 18092.0, 18086.0, 18091.0, 18112.0, 18119.0, 18102.0, 18112.0, 18108.0, 18099.0, 18080.0, 18080.0, 18074.0, 18067.0, 18074.0, 18071.0, 18083.0, 18089.0, 18066.0, 18096.0, 18134.0, 18131.0, 18119.0, 18098.0, 18098.0, 18083.0, 18082.0, 18082.0, 18087.0, 18072.0, 18064.0, 18047.0, 18053.0, 18008.0, 18105.0, 18111.0, 18125.0, 18059.0, 18057.0, 18002.0, 17976.0, 17989.0, 18006.0, 18013.0, 18050.0, 18065.0, 18084.0, 18104.0, 18111.0, 18124.0, 18079.0, 18110.0, 18106.0, 18109.0, 18089.0, 18089.0, 18110.0, 18101.0, 18076.0, 18084.0, 18077.0, 18075.0, 18082.0, 18062.0, 18059.0, 18078.0, 18071.0, 18074.0, 18055.0, 18065.0, 18068.0, 18061.0, 18070.0, 18061.0, 18061.0, 18063.0, 18096.0, 18111.0, 18104.0, 18087.0, 18088.0, 18072.0, 18084.0, 18077.0, 18037.0, 18026.0, 18035.0, 18032.0, 18070.0, 18058.0, 18073.0, 18077.0, 18070.0, 18063.0, 18051.0],
      "WindowWidth": [46483.0, 46442.0, 46406.0, 46472.0, 46420.0, 46358.0, 46345.0, 46354.0, 46326.0, 46354.0, 46336.0, 46342.0, 46371.0, 46357.0, 46307.0, 46329.0, 46296.0, 46334.0, 46314.0, 46278.0, 46283.0, 46309.0, 46323.0, 46355.0, 46378.0, 46431.0, 46421.0, 46381.0, 46315.0, 46287.0, 46299.0, 46332.0, 46327.0, 46328.0, 46364.0, 46377.0, 46357.0, 46366.0, 46323.0, 46302.0, 46340.0, 46369.0, 46391.0, 46387.0, 46377.0, 46373.0, 46351.0, 46323.0, 46371.0, 46367.0, 46336.0, 46302.0, 46325.0, 46319.0, 46333.0, 46331.0, 46373.0, 46351.0, 46350.0, 46320.0, 46331.0, 46311.0, 46356.0, 46388.0, 46356.0, 46323.0, 46254.0, 46279.0, 46268.0, 46243.0, 46219.0, 46234.0, 46248.0, 46273.0, 46308.0, 46313.0, 46322.0, 46345.0, 46350.0, 46360.0, 46365.0, 46363.0, 46401.0, 46404.0, 46369.0, 46319.0, 46306.0, 46320.0, 46281.0, 46278.0, 46303.0, 46329.0, 46315.0, 46275.0, 46256.0, 46305.0, 46367.0, 46370.0, 46411.0, 46504.0, 46458.0, 46356.0, 46236.0, 46443.0, 46383.0, 46349.0, 46163.0, 45829.0, 45778.0, 45812.0, 45952.0, 46088.0, 46185.0, 46258.0, 46284.0, 46341.0, 46407.0, 46369.0, 46407.0, 46428.0, 46377.0, 46292.0, 46286.0, 46315.0, 46251.0, 46219.0, 46235.0, 46269.0, 46300.0, 46297.0, 46293.0, 46325.0, 46277.0, 46240.0, 46202.0, 46197.0, 46153.0, 46158.0, 46220.0, 46243.0, 46263.0, 46218.0, 46282.0, 46402.0, 46385.0, 46310.0, 46268.0, 46269.0, 46259.0, 46272.0, 46247.0, 46233.0, 46196.0, 46162.0, 46121.0, 46116.0, 45982.0, 46310.0, 46325.0, 46333.0, 46104.0, 46037.0, 45899.0, 45830.0, 45872.0, 45934.0, 46003.0, 46086.0, 46150.0, 46255.0, 46262.0, 46318.0, 46313.0, 46203.0, 46355.0, 46314.0, 46325.0, 46296.0, 46297.0, 46314.0, 46269.0, 46236.0, 46229.0, 46272.0, 46260.0, 46237.0, 46185.0, 46194.0, 46211.0, 46231.0, 46248.0, 46229.0, 46224.0, 46228.0, 46237.0, 46226.0, 46185.0, 46197.0, 46226.0, 46300.0, 46351.0, 46316.0, 46289.0, 46216.0, 46227.0, 46191.0, 46157.0, 46095.0, 46075.0, 46095.0, 46047.0, 46200.0, 46168.0, 46219.0, 46209.0, 46214.0, 46195.0, 46207.0]
    },
    "slices": {}
  }
}