{
  "AcquisitionMatrixPE": 116,
  "AcquisitionNumber": 1,
  "AcquisitionTime": "10:46:49.935000",
  "BandwidthPerPixelPhaseEncode": 18.539,
  "BaseResolution": 116,
  "BodyPartExamined": "HEAD",
  "ConsistencyInfo": "N4_VD13D_LATEST_20130810",
  "ConversionSoftware": "dcm2niix",
  "ConversionSoftwareVersion": "v1.0.20190410  (JP2:OpenJPEG) (JP-LS:CharLS) GCC5.5.0",
  "DerivedVendorReportedEchoSpacing": 0.000930006,
  "DeviceSerialNumber": "66014",
  "DwellTime": 3e-06,
  "EchoTime": 0.03,
  "EchoTrainLength": 50,
  "EffectiveEchoSpacing": 0.000465003,
  "FlipAngle": 81,
  "ImageComments": "Unaliased_MB3_PE4",
  "ImageOrientationPatientDICOM": [0.999994, -0.00169778, -0.00304853, 0.00174534, 0.999876, 0.0156649],
  "ImageType": [
    "ORIGINAL",
    "PRIMARY",
    "M",
    "MB",
    "ND",
    "MOSAIC"
],
  "ImagingFrequency": 123.261,
  "InPlanePhaseEncodingDirectionDICOM": "COL",
  "InstitutionAddress": "Yiheyuan_Road_5_Beijing_Haidian_CN_100871",
  "InstitutionName": "Peking_University",
  "InstitutionalDepartmentName": "Department",
  "MRAcquisitionType": "2D",
  "MagneticFieldStrength": 3,
  "Manufacturer": "Siemens",
  "ManufacturersModelName": "Prisma",
  "Modality": "MR",
  "MultibandAccelerationFactor": 3,
  "ParallelReductionFactorInPlane": 2,
  "PartialFourier": 0.875,
  "PatientPosition": "HFS",
  "PercentPhaseFOV": 100,
  "PhaseEncodingDirection": "j-",
  "PhaseEncodingSteps": 101,
  "PhaseResolution": 1,
  "PixelBandwidth": 1435,
  "ProcedureStepDescription": "Research_Projects_64CH",
  "ProtocolName": "mbep2d_bold_MB3_test2",
  "PulseSequenceDetails": "%CustomerSeq%_cmrr_mbep2d_bold",
  "ReceiveCoilActiveElements": "HC3-7",
  "ReceiveCoilName": "HeadNeck_64",
  "ReconMatrixPE": 116,
  "RefLinesPE": 44,
  "RepetitionTime": 2,
  "SAR": 0.0612468,
  "ScanOptions": "PFP_FS",
  "ScanningSequence": "EP",
  "SequenceName": "epfid2d1_116",
  "SequenceVariant": "SK_SS",
  "SeriesDescription": "mbep2d_bold_MB3_test2",
  "SeriesNumber": 7,
  "ShimSetting": [-3447, -2131, -1912, 422, 40, -187, 92, -33],
  "SliceThickness": 1.9,
  "SliceTiming": [0, 0.9075, 1.815, 0.7425, 1.65, 0.5775, 1.485, 0.4125, 1.32, 0.2475, 1.155, 0.0825, 0.99, 1.8975, 0.825, 1.7325, 0.66, 1.5675, 0.495, 1.4025, 0.33, 1.2375, 0.165, 1.0725, 0, 0.9075, 1.815, 0.7425, 1.65, 0.5775, 1.485, 0.4125, 1.32, 0.2475, 1.155, 0.0825, 0.99, 1.8975, 0.825, 1.7325, 0.66, 1.5675, 0.495, 1.4025, 0.33, 1.2375, 0.165, 1.0725, 0, 0.9075, 1.815, 0.7425, 1.65, 0.5775, 1.485, 0.4125, 1.32, 0.2475, 1.155, 0.0825, 0.99, 1.8975, 0.825, 1.7325, 0.66, 1.5675, 0.495, 1.4025, 0.33, 1.2375, 0.165, 1.0725],
  "SoftwareVersions": "syngo_MR_D13D",
  "SpacingBetweenSlices": 1.9,
  "StationName": "AWP66014",
  "TaskName": "retrieval",
  "TotalReadoutTime": 0.0534753,
  "TxRefAmp": 214.959,
  "WipMemBlock": "b113aa2f-7407-47a2-8589-29784f144e1f||Sequence: vd13d/master r/0735857; Nov 19 2014 09:21:40 by eja",
  "dcmmeta_affine": [
    [-1.8965401649475098, 0.003310120664536953, -0.005740951281040907, 109.05440521240234],
    [0.003219930687919259, 1.8963161706924438, 0.029773294925689697, -101.74104309082031],
    [-0.005781690124422312, -0.0297093503177166, 1.899757981300354, -69.61904907226562],
    [0.0, 0.0, 0.0, 1.0]
],
  "dcmmeta_reorient_transform": [
    [0.0, -1.0, 0.0, 115.0],
    [1.0, 0.0, 0.0, 0.0],
    [0.0, 0.0, 1.0, 0.0],
    [0.0, 0.0, 0.0, 1.0]
],
  "dcmmeta_shape": [116, 116, 72, 289],
  "dcmmeta_slice_dim": 2,
  "dcmmeta_version": 0.6,
  "global": {
    "const": {
      "AcquisitionMatrix": [116, 0, 0, 116],
      "AngioFlag": "N",
      "BitsAllocated": 16,
      "BitsStored": 16,
      "BodyPartExamined": "HEAD",
      "Columns": 1044,
      "EchoNumbers": 1,
      "EchoTime": 30.0,
      "EchoTrainLength": 50,
      "FlipAngle": 81.0,
      "HighBit": 15,
      "ImageOrientationPatient": [0.99999391198999, -0.001697781688, -0.0030485275624, 0.00174533637709, 0.99987577416386, 0.01566493029521],
      "ImagePositionPatient": [-990.96560747262, -994.73194600853, -84.138058251614],
      "ImageType": [
        "ORIGINAL",
        "PRIMARY",
        "M",
        "MB",
        "ND",
        "MOSAIC"
],
      "ImagedNucleus": "1H",
      "ImagingFrequency": 123.260555,
      "InPlanePhaseEncodingDirection": "COL",
      "LargestImagePixelValue": 65535,
      "MRAcquisitionType": "2D",
      "MagneticFieldStrength": 3.0,
      "Manufacturer": "SIEMENS",
      "ManufacturerModelName": "Prisma",
      "Modality": "MR",
      "NumberOfAverages": 1.0,
      "NumberOfPhaseEncodingSteps": 101,
      "PercentPhaseFieldOfView": 100.0,
      "PercentSampling": 100.0,
      "PerformedProcedureStepStartTime": "101256.761000",
      "PhotometricInterpretation": "MONOCHROME2",
      "PixelBandwidth": 1435.0,
      "PixelRepresentation": 0,
      "PixelSpacing": [1.8965517282486, 1.8965517282486],
      "ProtocolName": "mbep2d_bold_MB3_test2",
      "RepetitionTime": 2000.0,
      "Rows": 1044,
      "SAR": 0.06124683513039,
      "SamplesPerPixel": 1,
      "ScanOptions": [
        "PFP",
        "FS"
],
      "ScanningSequence": "EP",
      "SequenceName": "epfid2d1_116",
      "SequenceVariant": [
        "SK",
        "SS"
],
      "SeriesDescription": "mbep2d_bold_MB3_test2",
      "SeriesNumber": 7,
      "SeriesTime": "104701.527000",
      "SliceLocation": -71.533994198918,
      "SliceThickness": 1.8999999761581,
      "SmallestImagePixelValue": 0,
      "SoftwareVersions": "syngo MR D13D",
      "SpacingBetweenSlices": 1.8999999947821,
      "SpecificCharacterSet": "ISO_IR 100",
      "StudyID": "1",
      "StudyTime": "101256.678000",
      "TimeOfLastCalibration": ["123723.000000", "123723.000000"],
      "TransmitCoilName": "Body",
      "VariableFlipAngleFlag": "N",
      "WindowCenterWidthExplanation": "Algo1",
      "dBdt": 0.0},
    "slices": {}
  },
  "time": {
    "samples": {
      "AcquisitionNumber": [1, 2, 3, 4, 5, 6, 7, 8, 9, 10, 11, 12, 13, 14, 15, 16, 17, 18, 19, 20, 21, 22, 23, 24, 25, 26, 27, 28, 29, 30, 31, 32, 33, 34, 35, 36, 37, 38, 39, 40, 41, 42, 43, 44, 45, 46, 47, 48, 49, 50, 51, 52, 53, 54, 55, 56, 57, 58, 59, 60, 61, 62, 63, 64, 65, 66, 67, 68, 69, 70, 71, 72, 73, 74, 75, 76, 77, 78, 79, 80, 81, 82, 83, 84, 85, 86, 87, 88, 89, 90, 91, 92, 93, 94, 95, 96, 97, 98, 99, 100, 101, 102, 103, 104, 105, 106, 107, 108, 109, 110, 111, 112, 113, 114, 115, 116, 117, 118, 119, 120, 121, 122, 123, 124, 125, 126, 127, 128, 129, 130, 131, 132, 133, 134, 135, 136, 137, 138, 139, 140, 141, 142, 143, 144, 145, 146, 147, 148, 149, 150, 151, 152, 153, 154, 155, 156, 157, 158, 159, 160, 161, 162, 163, 164, 165, 166, 167, 168, 169, 170, 171, 172, 173, 174, 175, 176, 177, 178, 179, 180, 181, 182, 183, 184, 185, 186, 187, 188, 189, 190, 191, 192, 193, 194, 195, 196, 197, 198, 199, 200, 201, 202, 203, 204, 205, 206, 207, 208, 209, 210, 211, 212, 213, 214, 215, 216, 217, 218, 219, 220, 221, 222, 223, 224, 225, 226, 227, 228, 229, 230, 231, 232, 233, 234, 235, 236, 237, 238, 239, 240, 241, 242, 243, 244, 245, 246, 247, 248, 249, 250, 251, 252, 253, 254, 255, 256, 257, 258, 259, 260, 261, 262, 263, 264, 265, 266, 267, 268, 269, 270, 271, 272, 273, 274, 275, 276, 277, 278, 279, 280, 281, 282, 283, 284, 285, 286, 287, 288, 289],
      "AcquisitionTime": ["104649.935000", "104651.935000", "104653.935000", "104655.935000", "104657.935000", "104659.935000", "104701.935000", "104703.935000", "104705.935000", "104707.935000", "104709.935000", "104711.935000", "104713.935000", "104715.935000", "104717.935000", "104719.935000", "104721.935000", "104723.935000", "104725.935000", "104727.935000", "104729.935000", "104731.935000", "104733.935000", "104735.935000", "104737.935000", "104739.935000", "104741.935000", "104743.935000", "104745.935000", "104747.935000", "104749.935000", "104751.935000", "104753.935000", "104755.935000", "104757.935000", "104759.935000", "104801.935000", "104803.935000", "104805.935000", "104807.935000", "104809.935000", "104811.935000", "104813.935000", "104815.935000", "104817.935000", "104819.935000", "104821.935000", "104823.935000", "104825.935000", "104827.935000", "104829.935000", "104831.935000", "104833.935000", "104835.935000", "104837.935000", "104839.935000", "104841.935000", "104843.935000", "104845.935000", "104847.935000", "104849.935000", "104851.935000", "104853.935000", "104855.935000", "104857.935000", "104859.935000", "104901.935000", "104903.935000", "104905.935000", "104907.935000", "104909.935000", "104911.935000", "104913.935000", "104915.935000", "104917.935000", "104919.935000", "104921.935000", "104923.935000", "104925.935000", "104927.935000", "104929.935000", "104931.935000", "104933.935000", "104935.935000", "104937.935000", "104939.935000", "104941.935000", "104943.935000", "104945.935000", "104947.935000", "104949.935000", "104951.935000", "104953.935000", "104955.935000", "104957.935000", "104959.935000", "105001.935000", "105003.935000", "105005.935000", "105007.935000", "105009.935000", "105011.935000", "105013.935000", "105015.935000", "105017.935000", "105019.935000", "105021.935000", "105023.935000", "105025.935000", "105027.935000", "105029.935000", "105031.935000", "105033.935000", "105035.935000", "105037.935000", "105039.935000", "105041.937500", "105043.937500", "105045.937500", "105047.937500", "105049.937500", "105051.937500", "105053.937500", "105055.937500", "105057.937500", "105059.937500", "105101.937500", "105103.937500", "105105.937500", "105107.937500", "105109.937500", "105111.937500", "105113.937500", "105115.937500", "105117.937500", "105119.937500", "105121.937500", "105123.937500", "105125.937500", "105127.937500", "105129.937500", "105131.937500", "105133.937500", "105135.937500", "105137.937500", "105139.937500", "105141.937500", "105143.937500", "105145.937500", "105147.937500", "105149.937500", "105151.937500", "105153.937500", "105155.937500", "105157.937500", "105159.937500", "105201.937500", "105203.937500", "105205.937500", "105207.937500", "105209.937500", "105211.937500", "105213.937500", "105215.937500", "105217.937500", "105219.937500", "105221.937500", "105223.937500", "105225.937500", "105227.937500", "105229.937500", "105231.937500", "105233.937500", "105235.937500", "105237.937500", "105239.937500", "105241.937500", "105243.937500", "105245.937500", "105247.937500", "105249.937500", "105251.937500", "105253.937500", "105255.937500", "105257.937500", "105259.937500", "105301.937500", "105303.937500", "105305.937500", "105307.937500", "105309.937500", "105311.937500", "105313.937500", "105315.937500", "105317.937500", "105319.937500", "105321.937500", "105323.937500", "105325.937500", "105327.937500", "105329.937500", "105331.937500", "105333.937500", "105335.937500", "105337.937500", "105339.937500", "105341.937500", "105343.937500", "105345.937500", "105347.937500", "105349.937500", "105351.937500", "105353.937500", "105355.937500", "105357.937500", "105359.937500", "105401.937500", "105403.937500", "105405.937500", "105407.937500", "105409.937500", "105411.937500", "105413.937500", "105415.937500", "105417.937500", "105419.937500", "105421.937500", "105423.937500", "105425.937500", "105427.937500", "105429.937500", "105431.937500", "105433.937500", "105435.937500", "105437.937500", "105439.937500", "105441.937500", "105443.937500", "105445.937500", "105447.937500", "105449.937500", "105451.937500", "105453.937500", "105455.937500", "105457.937500", "105459.937500", "105501.937500", "105503.937500", "105505.937500", "105507.937500", "105509.937500", "105511.937500", "105513.937500", "105515.937500", "105517.937500", "105519.937500", "105521.937500", "105523.937500", "105525.937500", "105527.937500", "105529.937500", "105531.937500", "105533.937500", "105535.937500", "105537.937500", "105539.937500", "105541.937500", "105543.937500", "105545.937500", "105547.937500", "105549.937500", "105551.937500", "105553.937500", "105555.937500", "105557.937500", "105559.937500", "105601.937500", "105603.937500", "105605.937500", "105607.937500", "105609.937500", "105611.937500", "105613.937500", "105615.937500", "105617.937500", "105619.937500", "105621.937500", "105623.937500", "105625.937500"],
      "ContentTime": ["104701.533000", "104702.526000", "104702.530000", "104703.526000", "104703.530000", "104704.527000", "104705.526000", "104707.027000", "104709.027000", "104711.026000", "104713.026000", "104715.027000", "104717.027000", "104719.027000", "104721.027000", "104723.027000", "104725.026000", "104727.027000", "104729.026000", "104731.026000", "104733.027000", "104735.027000", "104737.027000", "104739.027000", "104741.027000", "104743.027000", "104745.025000", "104747.026000", "104749.026000", "104751.027000", "104753.027000", "104755.027000", "104757.027000", "104759.027000", "104801.026000", "104803.026000", "104805.026000", "104807.027000", "104809.028000", "104811.027000", "104813.027000", "104815.027000", "104817.027000", "104819.027000", "104821.027000", "104823.025000", "104825.027000", "104827.027000", "104829.027000", "104831.027000", "104833.027000", "104835.027000", "104837.026000", "104839.024000", "104841.026000", "104843.027000", "104845.027000", "104847.027000", "104849.027000", "104851.027000", "104853.027000", "104855.026000", "104857.026000", "104859.026000", "104901.027000", "104903.027000", "104905.027000", "104907.026000", "104909.027000", "104911.027000", "104913.026000", "104915.026000", "104917.027000", "104919.027000", "104921.027000", "104923.027000", "104925.027000", "104927.027000", "104929.028000", "104931.026000", "104933.026000", "104935.027000", "104937.027000", "104939.027000", "104941.027000", "104943.026000", "104945.027000", "104947.026000", "104949.026000", "104951.026000", "104953.027000", "104955.027000", "104957.027000", "104959.027000", "105001.027000", "105003.027000", "105005.025000", "105007.026000", "105009.026000", "105011.039000", "105013.028000", "105015.027000", "105017.027000", "105019.028000", "105021.026000", "105023.027000", "105025.026000", "105027.027000", "105029.027000", "105031.027000", "105033.026000", "105035.026000", "105037.027000", "105039.027000", "105041.026000", "105043.026000", "105045.027000", "105047.027000", "105049.027000", "105051.027000", "105053.027000", "105055.027000", "105057.025000", "105059.026000", "105101.026000", "105103.027000", "105105.027000", "105107.026000", "105109.026000", "105111.027000", "105113.028000", "105115.026000", "105117.026000", "105119.026000", "105121.028000", "105123.027000", "105125.026000", "105127.027000", "105129.027000", "105131.027000", "105133.026000", "105135.026000", "105137.025000", "105139.027000", "105141.027000", "105143.027000", "105145.027000", "105147.027000", "105149.027000", "105151.026000", "105153.026000", "105155.025000", "105157.027000", "105159.027000", "105201.027000", "105203.027000", "105205.027000", "105207.026000", "105209.026000", "105211.026000", "105213.027000", "105215.026000", "105217.027000", "105219.026000", "105221.027000", "105223.027000", "105225.026000", "105227.026000", "105229.026000", "105231.027000", "105233.027000", "105235.027000", "105237.027000", "105239.027000", "105241.027000", "105243.025000", "105245.026000", "105247.027000", "105249.027000", "105251.027000", "105253.025000", "105255.027000", "105257.027000", "105259.027000", "105301.026000", "105303.026000", "105305.027000", "105307.027000", "105309.026000", "105311.027000", "105313.027000", "105315.027000", "105317.026000", "105319.026000", "105321.026000", "105323.028000", "105325.027000", "105327.027000", "105329.027000", "105331.027000", "105333.027000", "105335.026000", "105337.026000", "105339.026000", "105341.027000", "105343.027000", "105345.027000", "105347.027000", "105349.027000", "105351.027000", "105353.026000", "105355.026000", "105357.027000", "105359.027000", "105401.027000", "105403.027000", "105405.027000", "105407.027000", "105409.027000", "105411.026000", "105413.026000", "105415.027000", "105417.027000", "105419.027000", "105421.027000", "105423.027000", "105425.027000", "105427.026000", "105429.026000", "105431.026000", "105433.027000", "105435.027000", "105437.027000", "105439.027000", "105441.027000", "105443.028000", "105445.026000", "105447.026000", "105449.027000", "105451.027000", "105453.027000", "105455.027000", "105457.027000", "105459.027000", "105501.027000", "105503.027000", "105505.026000", "105507.027000", "105509.027000", "105511.028000", "105513.027000", "105515.027000", "105517.027000", "105519.025000", "105521.026000", "105523.026000", "105525.027000", "105527.025000", "105529.026000", "105531.027000", "105533.027000", "105535.027000", "105537.026000", "105539.026000", "105541.027000", "105543.027000", "105545.027000", "105547.027000", "105549.027000", "105551.027000", "105553.027000", "105555.026000", "105557.026000", "105559.027000", "105601.027000", "105603.035000", "105605.025000", "105607.025000", "105609.027000", "105611.027000", "105613.026000", "105615.026000", "105617.027000", "105619.027000", "105621.027000", "105623.027000", "105625.027000", "105627.027000", "105628.836000"],
      "InstanceCreationTime": ["104701.533000", "104702.526000", "104702.530000", "104703.526000", "104703.530000", "104704.527000", "104705.526000", "104707.027000", "104709.027000", "104711.026000", "104713.026000", "104715.027000", "104717.027000", "104719.027000", "104721.027000", "104723.027000", "104725.026000", "104727.027000", "104729.026000", "104731.026000", "104733.027000", "104735.027000", "104737.027000", "104739.027000", "104741.027000", "104743.027000", "104745.025000", "104747.026000", "104749.026000", "104751.027000", "104753.027000", "104755.027000", "104757.027000", "104759.027000", "104801.026000", "104803.026000", "104805.026000", "104807.027000", "104809.028000", "104811.027000", "104813.027000", "104815.027000", "104817.027000", "104819.027000", "104821.027000", "104823.025000", "104825.027000", "104827.027000", "104829.027000", "104831.027000", "104833.027000", "104835.027000", "104837.026000", "104839.024000", "104841.026000", "104843.027000", "104845.027000", "104847.027000", "104849.027000", "104851.027000", "104853.027000", "104855.026000", "104857.026000", "104859.026000", "104901.027000", "104903.027000", "104905.027000", "104907.026000", "104909.027000", "104911.027000", "104913.026000", "104915.026000", "104917.027000", "104919.027000", "104921.027000", "104923.027000", "104925.027000", "104927.027000", "104929.028000", "104931.026000", "104933.026000", "104935.027000", "104937.027000", "104939.027000", "104941.027000", "104943.026000", "104945.027000", "104947.026000", "104949.026000", "104951.026000", "104953.027000", "104955.027000", "104957.027000", "104959.027000", "105001.027000", "105003.027000", "105005.025000", "105007.026000", "105009.026000", "105011.039000", "105013.028000", "105015.027000", "105017.027000", "105019.028000", "105021.026000", "105023.027000", "105025.026000", "105027.027000", "105029.027000", "105031.027000", "105033.026000", "105035.026000", "105037.027000", "105039.027000", "105041.026000", "105043.026000", "105045.027000", "105047.027000", "105049.027000", "105051.027000", "105053.027000", "105055.027000", "105057.025000", "105059.026000", "105101.026000", "105103.027000", "105105.027000", "105107.026000", "105109.026000", "105111.027000", "105113.028000", "105115.026000", "105117.026000", "105119.026000", "105121.028000", "105123.027000", "105125.026000", "105127.027000", "105129.027000", "105131.027000", "105133.026000", "105135.026000", "105137.025000", "105139.027000", "105141.027000", "105143.027000", "105145.027000", "105147.027000", "105149.027000", "105151.026000", "105153.026000", "105155.025000", "105157.027000", "105159.027000", "105201.027000", "105203.027000", "105205.027000", "105207.026000", "105209.026000", "105211.026000", "105213.027000", "105215.026000", "105217.027000", "105219.026000", "105221.027000", "105223.027000", "105225.026000", "105227.026000", "105229.026000", "105231.027000", "105233.027000", "105235.027000", "105237.027000", "105239.027000", "105241.027000", "105243.025000", "105245.026000", "105247.027000", "105249.027000", "105251.027000", "105253.025000", "105255.027000", "105257.027000", "105259.027000", "105301.026000", "105303.026000", "105305.027000", "105307.027000", "105309.026000", "105311.027000", "105313.027000", "105315.027000", "105317.026000", "105319.026000", "105321.026000", "105323.028000", "105325.027000", "105327.027000", "105329.027000", "105331.027000", "105333.027000", "105335.026000", "105337.026000", "105339.026000", "105341.027000", "105343.027000", "105345.027000", "105347.027000", "105349.027000", "105351.027000", "105353.026000", "105355.026000", "105357.027000", "105359.027000", "105401.027000", "105403.027000", "105405.027000", "105407.027000", "105409.027000", "105411.026000", "105413.026000", "105415.027000", "105417.027000", "105419.027000", "105421.027000", "105423.027000", "105425.027000", "105427.026000", "105429.026000", "105431.026000", "105433.027000", "105435.027000", "105437.027000", "105439.027000", "105441.027000", "105443.028000", "105445.026000", "105447.026000", "105449.027000", "105451.027000", "105453.027000", "105455.027000", "105457.027000", "105459.027000", "105501.027000", "105503.027000", "105505.026000", "105507.027000", "105509.027000", "105511.028000", "105513.027000", "105515.027000", "105517.027000", "105519.025000", "105521.026000", "105523.026000", "105525.027000", "105527.025000", "105529.026000", "105531.027000", "105533.027000", "105535.027000", "105537.026000", "105539.026000", "105541.027000", "105543.027000", "105545.027000", "105547.027000", "105549.027000", "105551.027000", "105553.027000", "105555.026000", "105557.026000", "105559.027000", "105601.027000", "105603.035000", "105605.025000", "105607.025000", "105609.027000", "105611.027000", "105613.026000", "105615.026000", "105617.027000", "105619.027000", "105621.027000", "105623.027000", "105625.027000", "105627.027000", "105628.836000"],
      "InstanceNumber": [1, 2, 3, 4, 5, 6, 7, 8, 9, 10, 11, 12, 13, 14, 15, 16, 17, 18, 19, 20, 21, 22, 23, 24, 25, 26, 27, 28, 29, 30, 31, 32, 33, 34, 35, 36, 37, 38, 39, 40, 41, 42, 43, 44, 45, 46, 47, 48, 49, 50, 51, 52, 53, 54, 55, 56, 57, 58, 59, 60, 61, 62, 63, 64, 65, 66, 67, 68, 69, 70, 71, 72, 73, 74, 75, 76, 77, 78, 79, 80, 81, 82, 83, 84, 85, 86, 87, 88, 89, 90, 91, 92, 93, 94, 95, 96, 97, 98, 99, 100, 101, 102, 103, 104, 105, 106, 107, 108, 109, 110, 111, 112, 113, 114, 115, 116, 117, 118, 119, 120, 121, 122, 123, 124, 125, 126, 127, 128, 129, 130, 131, 132, 133, 134, 135, 136, 137, 138, 139, 140, 141, 142, 143, 144, 145, 146, 147, 148, 149, 150, 151, 152, 153, 154, 155, 156, 157, 158, 159, 160, 161, 162, 163, 164, 165, 166, 167, 168, 169, 170, 171, 172, 173, 174, 175, 176, 177, 178, 179, 180, 181, 182, 183, 184, 185, 186, 187, 188, 189, 190, 191, 192, 193, 194, 195, 196, 197, 198, 199, 200, 201, 202, 203, 204, 205, 206, 207, 208, 209, 210, 211, 212, 213, 214, 215, 216, 217, 218, 219, 220, 221, 222, 223, 224, 225, 226, 227, 228, 229, 230, 231, 232, 233, 234, 235, 236, 237, 238, 239, 240, 241, 242, 243, 244, 245, 246, 247, 248, 249, 250, 251, 252, 253, 254, 255, 256, 257, 258, 259, 260, 261, 262, 263, 264, 265, 266, 267, 268, 269, 270, 271, 272, 273, 274, 275, 276, 277, 278, 279, 280, 281, 282, 283, 284, 285, 286, 287, 288, 289],
      "WindowCenter": [15080.0, 15066.0, 15064.0, 15071.0, 15086.0, 15082.0, 15088.0, 15077.0, 15081.0, 15083.0, 15069.0, 15073.0, 15068.0, 15062.0, 15067.0, 15070.0, 15080.0, 15073.0, 15072.0, 15068.0, 15070.0, 15064.0, 15059.0, 15059.0, 15062.0, 15056.0, 15066.0, 15074.0, 15087.0, 15078.0, 15057.0, 15065.0, 15061.0, 15075.0, 15078.0, 15087.0, 15079.0, 15073.0, 15066.0, 15067.0, 15070.0, 15066.0, 15070.0, 15060.0, 15078.0, 15075.0, 15074.0, 15081.0, 15075.0, 15070.0, 15075.0, 15073.0, 15066.0, 15070.0, 15065.0, 15067.0, 15069.0, 15071.0, 15068.0, 15062.0, 15061.0, 15064.0, 15064.0, 15061.0, 15077.0, 15073.0, 15065.0, 15064.0, 15058.0, 15064.0, 15066.0, 15060.0, 15059.0, 15064.0, 15064.0, 15071.0, 15059.0, 15055.0, 15063.0, 15064.0, 15063.0, 15056.0, 15059.0, 15052.0, 15056.0, 15054.0, 15067.0, 15072.0, 15070.0, 15081.0, 15067.0, 15075.0, 15077.0, 15075.0, 15067.0, 15052.0, 15060.0, 15054.0, 15065.0, 15054.0, 15054.0, 15066.0, 15084.0, 15078.0, 15065.0, 15063.0, 15066.0, 15059.0, 15077.0, 15076.0, 15065.0, 15070.0, 15067.0, 15067.0, 15071.0, 15076.0, 15080.0, 15074.0, 15083.0, 15072.0, 15072.0, 15062.0, 15068.0, 15068.0, 15077.0, 15071.0, 15079.0, 15083.0, 15087.0, 15075.0, 15071.0, 15073.0, 15063.0, 15067.0, 15068.0, 15071.0, 15073.0, 15074.0, 15088.0, 15090.0, 15077.0, 15068.0, 15061.0, 15067.0, 15067.0, 15072.0, 15076.0, 15085.0, 15086.0, 15072.0, 15064.0, 15058.0, 15061.0, 15055.0, 15051.0, 15063.0, 15058.0, 15074.0, 15065.0, 15079.0, 15079.0, 15068.0, 15062.0, 15061.0, 15067.0, 15061.0, 15056.0, 15051.0, 15048.0, 15051.0, 15056.0, 15043.0, 15036.0, 15043.0, 15064.0, 15065.0, 15056.0, 15055.0, 15052.0, 15051.0, 15048.0, 15048.0, 15036.0, 15045.0, 15051.0, 15068.0, 15058.0, 15068.0, 15076.0, 15055.0, 15057.0, 15049.0, 15047.0, 15052.0, 15042.0, 15044.0, 15050.0, 15055.0, 15065.0, 15057.0, 15043.0, 15050.0, 15055.0, 15049.0, 15045.0, 15046.0, 15045.0, 15044.0, 15072.0, 15076.0, 15081.0, 15060.0, 15049.0, 15046.0, 14980.0, 15055.0, 15067.0, 15094.0, 15081.0, 15054.0, 15046.0, 15050.0, 15060.0, 15079.0, 15065.0, 15077.0, 15079.0, 15088.0, 15086.0, 15076.0, 15092.0, 15078.0, 15087.0, 15101.0, 15108.0, 15084.0, 15093.0, 15085.0, 15076.0, 15073.0, 15084.0, 15086.0, 15083.0, 15081.0, 15075.0, 15067.0, 15089.0, 15085.0, 15082.0, 15083.0, 15079.0, 15085.0, 15083.0, 15074.0, 15070.0, 15064.0, 15067.0, 15072.0, 15092.0, 15090.0, 15093.0, 15089.0, 15092.0, 15086.0, 15092.0, 15082.0, 15088.0, 15083.0, 15094.0, 15093.0, 15103.0, 15093.0, 15087.0, 15083.0, 15081.0, 15092.0, 15083.0, 15089.0, 15076.0, 15081.0, 15073.0, 15074.0, 15081.0, 15078.0, 15075.0, 15084.0, 15097.0, 15076.0, 15084.0],
      "WindowWidth": [41192.0, 41148.0, 41088.0, 41006.0, 41080.0, 41134.0, 41132.0, 40882.0, 41225.0, 41116.0, 41041.0, 41034.0, 41001.0, 41009.0, 41098.0, 41153.0, 41197.0, 41175.0, 41175.0, 41157.0, 41187.0, 41106.0, 41042.0, 41057.0, 41077.0, 41155.0, 41193.0, 41123.0, 41063.0, 41040.0, 40984.0, 40953.0, 41013.0, 41167.0, 41184.0, 41168.0, 41105.0, 41063.0, 41153.0, 41113.0, 41073.0, 41038.0, 41030.0, 41045.0, 41083.0, 41146.0, 41145.0, 41170.0, 41149.0, 41129.0, 41121.0, 41076.0, 41025.0, 41004.0, 41026.0, 41071.0, 41129.0, 41144.0, 41082.0, 41063.0, 41077.0, 41094.0, 41095.0, 41103.0, 41068.0, 41063.0, 41098.0, 41123.0, 41143.0, 41078.0, 41038.0, 41033.0, 41031.0, 41067.0, 41108.0, 41087.0, 41057.0, 41025.0, 41023.0, 41035.0, 41079.0, 41012.0, 40987.0, 41050.0, 41099.0, 41152.0, 41153.0, 41147.0, 41156.0, 41172.0, 41226.0, 41193.0, 41093.0, 41034.0, 40996.0, 41024.0, 41063.0, 41125.0, 41095.0, 41081.0, 41123.0, 41235.0, 41231.0, 41135.0, 41081.0, 41048.0, 41050.0, 41086.0, 41108.0, 41117.0, 41149.0, 41154.0, 41133.0, 41093.0, 41117.0, 41090.0, 41111.0, 41104.0, 41085.0, 41071.0, 41085.0, 41129.0, 41155.0, 41041.0, 40994.0, 41042.0, 41122.0, 41109.0, 41056.0, 40960.0, 40896.0, 40914.0, 40921.0, 41047.0, 41066.0, 41093.0, 41110.0, 41099.0, 41106.0, 41121.0, 41090.0, 41033.0, 40981.0, 40978.0, 41022.0, 41041.0, 41062.0, 41098.0, 41089.0, 41069.0, 41044.0, 41037.0, 41028.0, 41017.0, 41012.0, 41002.0, 41023.0, 41077.0, 41118.0, 41162.0, 41118.0, 41078.0, 41071.0, 41099.0, 41092.0, 41057.0, 41021.0, 41015.0, 41024.0, 41043.0, 41004.0, 41031.0, 41054.0, 41160.0, 41172.0, 41086.0, 41093.0, 41006.0, 41016.0, 41056.0, 41008.0, 40951.0, 40954.0, 40966.0, 41016.0, 41109.0, 41079.0, 41080.0, 41037.0, 41063.0, 41033.0, 41056.0, 41080.0, 41111.0, 41069.0, 41059.0, 41053.0, 41076.0, 41062.0, 41066.0, 41089.0, 41097.0, 41074.0, 41055.0, 41033.0, 41023.0, 41034.0, 41090.0, 41091.0, 41229.0, 41122.0, 40980.0, 40879.0, 40854.0, 40647.0, 41219.0, 41082.0, 41211.0, 41037.0, 40832.0, 40724.0, 40875.0, 41041.0, 41105.0, 41100.0, 41103.0, 41093.0, 41091.0, 41105.0, 41102.0, 41067.0, 41037.0, 41117.0, 41219.0, 41152.0, 41081.0, 41005.0, 40957.0, 40961.0, 41000.0, 41042.0, 41073.0, 41072.0, 41039.0, 40988.0, 40950.0, 41035.0, 41087.0, 41067.0, 41026.0, 41035.0, 41058.0, 41068.0, 41030.0, 40994.0, 40973.0, 41018.0, 41124.0, 41221.0, 41244.0, 41262.0, 41200.0, 41134.0, 41127.0, 41092.0, 41096.0, 41103.0, 41069.0, 41112.0, 41182.0, 41192.0, 41152.0, 41091.0, 41096.0, 41097.0, 41083.0, 41071.0, 41052.0, 41034.0, 41026.0, 41015.0, 41058.0, 40997.0, 41009.0, 41061.0, 41129.0, 41116.0, 41078.0, 41075.0]
    },
    "slices": {}
  }
}