{
  "AcquisitionMatrixPE": 116,
  "AcquisitionNumber": 1,
  "AcquisitionTime": "12:00:1.545000",
  "BandwidthPerPixelPhaseEncode": 18.539,
  "BaseResolution": 116,
  "BodyPartExamined": "HEAD",
  "ConsistencyInfo": "N4_VD13D_LATEST_20130810",
  "ConversionSoftware": "dcm2niix",
  "ConversionSoftwareVersion": "v1.0.20190410  (JP2:OpenJPEG) (JP-LS:CharLS) GCC5.5.0",
  "DerivedVendorReportedEchoSpacing": 0.000930006,
  "DeviceSerialNumber": "66014",
  "DwellTime": 3e-06,
  "EchoTime": 0.03,
  "EchoTrainLength": 50,
  "EffectiveEchoSpacing": 0.000465003,
  "FlipAngle": 81,
  "ImageComments": "Unaliased_MB3_PE4",
  "ImageOrientationPatientDICOM": [0.999548, -0.0290181, 0.0078177, 0.0296659, 0.994316, -0.102256],
  "ImageType": [
    "ORIGINAL",
    "PRIMARY",
    "M",
    "MB",
    "ND",
    "MOSAIC"
],
  "ImagingFrequency": 123.261,
  "InPlanePhaseEncodingDirectionDICOM": "COL",
  "InstitutionAddress": "Yiheyuan_Road_5_Beijing_Haidian_CN_100871",
  "InstitutionName": "Peking_Univeristy",
  "InstitutionalDepartmentName": "Department",
  "MRAcquisitionType": "2D",
  "MagneticFieldStrength": 3,
  "Manufacturer": "Siemens",
  "ManufacturersModelName": "Prisma",
  "Modality": "MR",
  "MultibandAccelerationFactor": 3,
  "ParallelReductionFactorInPlane": 2,
  "PartialFourier": 0.875,
  "PatientPosition": "HFS",
  "PercentPhaseFOV": 100,
  "PhaseEncodingDirection": "j-",
  "PhaseEncodingSteps": 101,
  "PhaseResolution": 1,
  "PixelBandwidth": 1435,
  "ProcedureStepDescription": "Research_Projects_64CH",
  "ProtocolName": "mbep2d_bold_MB3_test1",
  "PulseSequenceDetails": "%CustomerSeq%_cmrr_mbep2d_bold",
  "ReceiveCoilActiveElements": "HC1-6",
  "ReceiveCoilName": "HeadNeck_64",
  "ReconMatrixPE": 116,
  "RefLinesPE": 44,
  "RepetitionTime": 2,
  "SAR": 0.0572239,
  "ScanOptions": "PFP_FS",
  "ScanningSequence": "EP",
  "SequenceName": "epfid2d1_116",
  "SequenceVariant": "SK_SS",
  "SeriesDescription": "mbep2d_bold_MB3_test1",
  "SeriesNumber": 6,
  "ShimSetting": [-3449, -2110, -1917, 382, 17, -155, 105, 43],
  "SliceThickness": 1.9,
  "SliceTiming": [0, 0.9075, 1.815, 0.7425, 1.65, 0.5775, 1.485, 0.4125, 1.32, 0.2475, 1.155, 0.0825, 0.99, 1.8975, 0.825, 1.7325, 0.66, 1.5675, 0.495, 1.4025, 0.33, 1.2375, 0.165, 1.0725, 0, 0.9075, 1.815, 0.7425, 1.65, 0.5775, 1.485, 0.4125, 1.32, 0.2475, 1.155, 0.0825, 0.99, 1.8975, 0.825, 1.7325, 0.66, 1.5675, 0.495, 1.4025, 0.33, 1.2375, 0.165, 1.0725, 0, 0.9075, 1.815, 0.7425, 1.65, 0.5775, 1.485, 0.4125, 1.32, 0.2475, 1.155, 0.0825, 0.99, 1.8975, 0.825, 1.7325, 0.66, 1.5675, 0.495, 1.4025, 0.33, 1.2375, 0.165, 1.0725],
  "SoftwareVersions": "syngo_MR_D13D",
  "SpacingBetweenSlices": 1.9,
  "StationName": "AWP66014",
  "TaskName": "retrieval",
  "TotalReadoutTime": 0.0534753,
  "TxRefAmp": 218.301,
  "WipMemBlock": "c047544f-bed2-4154-8544-eee62bbc1583||Sequence: vd13d/master r/0735857; Nov 19 2014 09:21:40 by eja",
  "dcmmeta_affine": [
    [-1.8956950902938843, 0.05626298114657402, 0.009131358936429024, 104.99886322021484],
    [0.05503428354859352, 1.8857710361480713, -0.19463971257209778, -97.2634506225586],
    [0.014826664701104164, 0.19393421709537506, 1.889981985092163, -69.47807312011719],
    [0.0, 0.0, 0.0, 1.0]
],
  "dcmmeta_reorient_transform": [
    [0.0, -1.0, 0.0, 115.0],
    [1.0, 0.0, 0.0, 0.0],
    [0.0, 0.0, 1.0, 0.0],
    [0.0, 0.0, 0.0, 1.0]
],
  "dcmmeta_shape": [116, 116, 72, 289],
  "dcmmeta_slice_dim": 2,
  "dcmmeta_version": 0.6,
  "global": {
    "const": {
      "AcquisitionMatrix": [116, 0, 0, 116],
      "AngioFlag": "N",
      "BitsAllocated": 16,
      "BitsStored": 16,
      "BodyPartExamined": "HEAD",
      "Columns": 1044,
      "EchoNumbers": 1,
      "EchoTime": 30.0,
      "EchoTrainLength": 50,
      "FlipAngle": 81.0,
      "HighBit": 15,
      "ImageOrientationPatient": [0.99954831541174, -0.0290180768886, 0.0078176960319, 0.02966593549323, 0.99431564239335, -0.1022562250585],
      "ImagePositionPatient": [-1017.1776515714, -969.06208001916, 35.930270647987],
      "ImageType": [
        "ORIGINAL",
        "PRIMARY",
        "M",
        "MB",
        "ND",
        "MOSAIC"
],
      "ImagedNucleus": "1H",
      "ImagingFrequency": 123.260548,
      "InPlanePhaseEncodingDirection": "COL",
      "LargestImagePixelValue": 65535,
      "MRAcquisitionType": "2D",
      "MagneticFieldStrength": 3.0,
      "Manufacturer": "SIEMENS",
      "ManufacturerModelName": "Prisma",
      "Modality": "MR",
      "NumberOfAverages": 1.0,
      "NumberOfPhaseEncodingSteps": 101,
      "PercentPhaseFieldOfView": 100.0,
      "PercentSampling": 100.0,
      "PerformedProcedureStepStartTime": "114517.170000",
      "PhotometricInterpretation": "MONOCHROME2",
      "PixelBandwidth": 1435.0,
      "PixelRepresentation": 0,
      "PixelSpacing": [1.8965517282486, 1.8965517282486],
      "ProtocolName": "mbep2d_bold_MB3_test1",
      "RepetitionTime": 2000.0,
      "Rows": 1044,
      "SAR": 0.05722386885897,
      "SamplesPerPixel": 1,
      "ScanOptions": [
        "PFP",
        "FS"
],
      "ScanningSequence": "EP",
      "SequenceName": "epfid2d1_116",
      "SequenceVariant": [
        "SK",
        "SS"
],
      "SeriesDescription": "mbep2d_bold_MB3_test1",
      "SeriesNumber": 6,
      "SeriesTime": "120012.675000",
      "SliceLocation": -58.643258069162,
      "SliceThickness": 1.8999999761581,
      "SmallestImagePixelValue": 0,
      "SoftwareVersions": "syngo MR D13D",
      "SpacingBetweenSlices": 1.8999999712405,
      "SpecificCharacterSet": "ISO_IR 100",
      "StudyID": "1",
      "StudyTime": "114517.124000",
      "TimeOfLastCalibration": ["123723.000000", "123723.000000"],
      "TransmitCoilName": "Body",
      "VariableFlipAngleFlag": "N",
      "WindowCenterWidthExplanation": "Algo1",
      "dBdt": 0.0},
    "slices": {}
  },
  "time": {
    "samples": {
      "AcquisitionNumber": [1, 2, 3, 4, 5, 6, 7, 8, 9, 10, 11, 12, 13, 14, 15, 16, 17, 18, 19, 20, 21, 22, 23, 24, 25, 26, 27, 28, 29, 30, 31, 32, 33, 34, 35, 36, 37, 38, 39, 40, 41, 42, 43, 44, 45, 46, 47, 48, 49, 50, 51, 52, 53, 54, 55, 56, 57, 58, 59, 60, 61, 62, 63, 64, 65, 66, 67, 68, 69, 70, 71, 72, 73, 74, 75, 76, 77, 78, 79, 80, 81, 82, 83, 84, 85, 86, 87, 88, 89, 90, 91, 92, 93, 94, 95, 96, 97, 98, 99, 100, 101, 102, 103, 104, 105, 106, 107, 108, 109, 110, 111, 112, 113, 114, 115, 116, 117, 118, 119, 120, 121, 122, 123, 124, 125, 126, 127, 128, 129, 130, 131, 132, 133, 134, 135, 136, 137, 138, 139, 140, 141, 142, 143, 144, 145, 146, 147, 148, 149, 150, 151, 152, 153, 154, 155, 156, 157, 158, 159, 160, 161, 162, 163, 164, 165, 166, 167, 168, 169, 170, 171, 172, 173, 174, 175, 176, 177, 178, 179, 180, 181, 182, 183, 184, 185, 186, 187, 188, 189, 190, 191, 192, 193, 194, 195, 196, 197, 198, 199, 200, 201, 202, 203, 204, 205, 206, 207, 208, 209, 210, 211, 212, 213, 214, 215, 216, 217, 218, 219, 220, 221, 222, 223, 224, 225, 226, 227, 228, 229, 230, 231, 232, 233, 234, 235, 236, 237, 238, 239, 240, 241, 242, 243, 244, 245, 246, 247, 248, 249, 250, 251, 252, 253, 254, 255, 256, 257, 258, 259, 260, 261, 262, 263, 264, 265, 266, 267, 268, 269, 270, 271, 272, 273, 274, 275, 276, 277, 278, 279, 280, 281, 282, 283, 284, 285, 286, 287, 288, 289],
      "AcquisitionTime": ["120001.545000", "120003.545000", "120005.545000", "120007.545000", "120009.545000", "120011.545000", "120013.545000", "120015.545000", "120017.545000", "120019.545000", "120021.545000", "120023.545000", "120025.545000", "120027.545000", "120029.545000", "120031.545000", "120033.545000", "120035.545000", "120037.545000", "120039.545000", "120041.545000", "120043.545000", "120045.545000", "120047.545000", "120049.545000", "120051.545000", "120053.545000", "120055.545000", "120057.545000", "120059.545000", "120101.545000", "120103.545000", "120105.545000", "120107.545000", "120109.545000", "120111.545000", "120113.545000", "120115.545000", "120117.545000", "120119.545000", "120121.545000", "120123.545000", "120125.545000", "120127.545000", "120129.545000", "120131.545000", "120133.545000", "120135.545000", "120137.545000", "120139.547500", "120141.547500", "120143.547500", "120145.547500", "120147.547500", "120149.547500", "120151.547500", "120153.547500", "120155.547500", "120157.547500", "120159.547500", "120201.547500", "120203.547500", "120205.547500", "120207.547500", "120209.547500", "120211.547500", "120213.547500", "120215.547500", "120217.547500", "120219.547500", "120221.547500", "120223.547500", "120225.547500", "120227.547500", "120229.547500", "120231.547500", "120233.547500", "120235.547500", "120237.547500", "120239.547500", "120241.547500", "120243.547500", "120245.547500", "120247.547500", "120249.547500", "120251.547500", "120253.547500", "120255.547500", "120257.547500", "120259.547500", "120301.547500", "120303.547500", "120305.547500", "120307.547500", "120309.547500", "120311.547500", "120313.547500", "120315.547500", "120317.547500", "120319.547500", "120321.547500", "120323.547500", "120325.547500", "120327.547500", "120329.547500", "120331.547500", "120333.547500", "120335.547500", "120337.547500", "120339.547500", "120341.547500", "120343.547500", "120345.547500", "120347.547500", "120349.547500", "120351.547500", "120353.547500", "120355.547500", "120357.547500", "120359.547500", "120401.547500", "120403.547500", "120405.547500", "120407.547500", "120409.547500", "120411.547500", "120413.547500", "120415.547500", "120417.547500", "120419.547500", "120421.547500", "120423.547500", "120425.547500", "120427.547500", "120429.547500", "120431.547500", "120433.547500", "120435.547500", "120437.547500", "120439.547500", "120441.547500", "120443.547500", "120445.547500", "120447.547500", "120449.547500", "120451.547500", "120453.547500", "120455.547500", "120457.547500", "120459.547500", "120501.547500", "120503.547500", "120505.547500", "120507.547500", "120509.547500", "120511.547500", "120513.547500", "120515.547500", "120517.547500", "120519.547500", "120521.547500", "120523.547500", "120525.547500", "120527.547500", "120529.547500", "120531.547500", "120533.547500", "120535.547500", "120537.547500", "120539.547500", "120541.547500", "120543.547500", "120545.547500", "120547.547500", "120549.547500", "120551.547500", "120553.547500", "120555.547500", "120557.547500", "120559.547500", "120601.547500", "120603.547500", "120605.547500", "120607.547500", "120609.547500", "120611.547500", "120613.547500", "120615.547500", "120617.547500", "120619.547500", "120621.547500", "120623.547500", "120625.547500", "120627.547500", "120629.547500", "120631.547500", "120633.547500", "120635.547500", "120637.547500", "120639.547500", "120641.547500", "120643.547500", "120645.547500", "120647.547500", "120649.547500", "120651.547500", "120653.547500", "120655.547500", "120657.547500", "120659.547500", "120701.547500", "120703.547500", "120705.547500", "120707.547500", "120709.547500", "120711.547500", "120713.547500", "120715.547500", "120717.547500", "120719.547500", "120721.547500", "120723.547500", "120725.547500", "120727.547500", "120729.547500", "120731.547500", "120733.547500", "120735.547500", "120737.547500", "120739.547500", "120741.547500", "120743.547500", "120745.547500", "120747.547500", "120749.547500", "120751.547500", "120753.547500", "120755.547500", "120757.547500", "120759.547500", "120801.547500", "120803.547500", "120805.547500", "120807.547500", "120809.547500", "120811.547500", "120813.547500", "120815.547500", "120817.547500", "120819.547500", "120821.547500", "120823.547500", "120825.547500", "120827.547500", "120829.547500", "120831.547500", "120833.547500", "120835.547500", "120837.547500", "120839.547500", "120841.547500", "120843.547500", "120845.547500", "120847.547500", "120849.547500", "120851.547500", "120853.547500", "120855.547500", "120857.547500", "120859.547500", "120901.547500", "120903.547500", "120905.547500", "120907.547500", "120909.547500", "120911.547500", "120913.547500", "120915.547500", "120917.547500", "120919.547500", "120921.547500", "120923.547500", "120925.547500", "120927.547500", "120929.547500", "120931.547500", "120933.547500", "120935.547500", "120937.547500"],
      "ContentTime": ["120012.681000", "120013.667000", "120013.671000", "120014.667000", "120015.667000", "120015.671000", "120016.667000", "120018.167000", "120020.168000", "120022.168000", "120024.168000", "120026.167000", "120028.167000", "120030.167000", "120032.168000", "120034.168000", "120036.168000", "120038.168000", "120040.168000", "120042.167000", "120044.167000", "120046.166000", "120048.167000", "120050.168000", "120052.168000", "120054.168000", "120056.168000", "120058.168000", "120100.167000", "120102.167000", "120104.167000", "120106.168000", "120108.168000", "120110.168000", "120112.168000", "120114.168000", "120116.168000", "120118.168000", "120120.166000", "120122.168000", "120124.168000", "120126.169000", "120128.168000", "120130.168000", "120132.168000", "120134.168000", "120136.167000", "120138.166000", "120140.188000", "120142.167000", "120144.166000", "120146.168000", "120148.168000", "120150.168000", "120152.168000", "120154.167000", "120156.167000", "120158.168000", "120200.168000", "120202.168000", "120204.168000", "120206.168000", "120208.168000", "120210.168000", "120212.165000", "120214.166000", "120216.168000", "120218.168000", "120220.168000", "120222.168000", "120224.168000", "120226.166000", "120228.166000", "120230.166000", "120232.166000", "120234.168000", "120236.168000", "120238.168000", "120240.168000", "120242.169000", "120244.167000", "120246.167000", "120248.167000", "120250.168000", "120252.168000", "120254.168000", "120256.168000", "120258.168000", "120300.168000", "120302.168000", "120304.167000", "120306.168000", "120308.168000", "120310.168000", "120312.168000", "120314.167000", "120316.168000", "120318.167000", "120320.167000", "120322.166000", "120324.168000", "120326.167000", "120328.167000", "120330.167000", "120332.666000", "120334.166000", "120336.166000", "120338.166000", "120340.165000", "120342.166000", "120344.166000", "120346.166000", "120348.167000", "120350.166000", "120352.168000", "120354.167000", "120356.166000", "120358.165000", "120400.167000", "120402.166000", "120404.166000", "120406.167000", "120408.167000", "120410.167000", "120412.167000", "120414.167000", "120416.167000", "120418.168000", "120420.166000", "120422.168000", "120424.168000", "120426.168000", "120428.168000", "120430.168000", "120432.167000", "120434.168000", "120436.168000", "120438.168000", "120440.168000", "120442.168000", "120444.167000", "120446.166000", "120448.167000", "120450.166000", "120452.168000", "120454.168000", "120456.168000", "120458.168000", "120500.168000", "120502.168000", "120504.168000", "120506.166000", "120508.167000", "120510.168000", "120512.169000", "120514.168000", "120516.168000", "120518.168000", "120520.168000", "120522.168000", "120524.167000", "120526.167000", "120528.168000", "120530.168000", "120532.168000", "120534.168000", "120536.167000", "120538.168000", "120540.168000", "120542.167000", "120544.168000", "120546.168000", "120548.169000", "120550.168000", "120552.167000", "120554.168000", "120556.175000", "120558.167000", "120600.167000", "120602.168000", "120604.168000", "120606.167000", "120608.168000", "120610.167000", "120612.168000", "120614.168000", "120616.167000", "120618.167000", "120620.168000", "120622.167000", "120624.168000", "120626.168000", "120628.168000", "120630.166000", "120632.167000", "120634.167000", "120636.167000", "120638.168000", "120640.168000", "120642.168000", "120644.169000", "120646.168000", "120648.166000", "120650.168000", "120652.167000", "120654.168000", "120656.168000", "120658.166000", "120700.167000", "120702.166000", "120704.167000", "120706.166000", "120708.186000", "120710.165000", "120712.167000", "120714.166000", "120716.166000", "120718.167000", "120720.167000", "120722.166000", "120724.167000", "120726.166000", "120728.165000", "120730.167000", "120732.167000", "120734.166000", "120736.166000", "120738.167000", "120740.187000", "120742.167000", "120744.165000", "120746.166000", "120748.166000", "120750.166000", "120752.167000", "120754.167000", "120756.166000", "120758.167000", "120800.166000", "120802.186000", "120804.166000", "120806.167000", "120808.167000", "120810.167000", "120812.166000", "120814.166000", "120816.167000", "120818.166000", "120820.165000", "120822.167000", "120824.166000", "120826.167000", "120828.166000", "120830.167000", "120832.166000", "120834.167000", "120836.165000", "120838.165000", "120840.167000", "120842.166000", "120844.166000", "120846.167000", "120848.166000", "120850.167000", "120852.187000", "120854.165000", "120856.166000", "120858.167000", "120900.168000", "120902.167000", "120904.166000", "120906.168000", "120908.168000", "120910.168000", "120912.167000", "120914.168000", "120916.168000", "120918.167000", "120920.168000", "120922.168000", "120924.168000", "120926.168000", "120928.167000", "120930.167000", "120932.168000", "120934.168000", "120936.168000", "120938.168000", "120939.761000"],
      "InstanceCreationTime": ["120012.681000", "120013.667000", "120013.671000", "120014.667000", "120015.667000", "120015.671000", "120016.667000", "120018.167000", "120020.168000", "120022.168000", "120024.168000", "120026.167000", "120028.167000", "120030.167000", "120032.168000", "120034.168000", "120036.168000", "120038.168000", "120040.168000", "120042.167000", "120044.167000", "120046.166000", "120048.167000", "120050.168000", "120052.168000", "120054.168000", "120056.168000", "120058.168000", "120100.167000", "120102.167000", "120104.167000", "120106.168000", "120108.168000", "120110.168000", "120112.168000", "120114.168000", "120116.168000", "120118.168000", "120120.166000", "120122.168000", "120124.168000", "120126.169000", "120128.168000", "120130.168000", "120132.168000", "120134.168000", "120136.167000", "120138.166000", "120140.188000", "120142.167000", "120144.166000", "120146.168000", "120148.168000", "120150.168000", "120152.168000", "120154.167000", "120156.167000", "120158.168000", "120200.168000", "120202.168000", "120204.168000", "120206.168000", "120208.168000", "120210.168000", "120212.165000", "120214.166000", "120216.168000", "120218.168000", "120220.168000", "120222.168000", "120224.168000", "120226.166000", "120228.166000", "120230.166000", "120232.166000", "120234.168000", "120236.168000", "120238.168000", "120240.168000", "120242.169000", "120244.167000", "120246.167000", "120248.167000", "120250.168000", "120252.168000", "120254.168000", "120256.168000", "120258.168000", "120300.168000", "120302.168000", "120304.167000", "120306.168000", "120308.168000", "120310.168000", "120312.168000", "120314.167000", "120316.168000", "120318.167000", "120320.167000", "120322.166000", "120324.168000", "120326.167000", "120328.167000", "120330.167000", "120332.666000", "120334.166000", "120336.166000", "120338.166000", "120340.165000", "120342.166000", "120344.166000", "120346.166000", "120348.167000", "120350.166000", "120352.168000", "120354.167000", "120356.166000", "120358.165000", "120400.167000", "120402.166000", "120404.166000", "120406.167000", "120408.167000", "120410.167000", "120412.167000", "120414.167000", "120416.167000", "120418.168000", "120420.166000", "120422.168000", "120424.168000", "120426.168000", "120428.168000", "120430.168000", "120432.167000", "120434.168000", "120436.168000", "120438.168000", "120440.168000", "120442.168000", "120444.167000", "120446.166000", "120448.167000", "120450.166000", "120452.168000", "120454.168000", "120456.168000", "120458.168000", "120500.168000", "120502.168000", "120504.168000", "120506.166000", "120508.167000", "120510.168000", "120512.169000", "120514.168000", "120516.168000", "120518.168000", "120520.168000", "120522.168000", "120524.167000", "120526.167000", "120528.168000", "120530.168000", "120532.168000", "120534.168000", "120536.167000", "120538.168000", "120540.168000", "120542.167000", "120544.168000", "120546.168000", "120548.169000", "120550.168000", "120552.167000", "120554.168000", "120556.175000", "120558.167000", "120600.167000", "120602.168000", "120604.168000", "120606.167000", "120608.168000", "120610.167000", "120612.168000", "120614.168000", "120616.167000", "120618.167000", "120620.168000", "120622.167000", "120624.168000", "120626.168000", "120628.168000", "120630.166000", "120632.167000", "120634.167000", "120636.167000", "120638.168000", "120640.168000", "120642.168000", "120644.169000", "120646.168000", "120648.166000", "120650.168000", "120652.167000", "120654.168000", "120656.168000", "120658.166000", "120700.167000", "120702.166000", "120704.167000", "120706.166000", "120708.186000", "120710.165000", "120712.167000", "120714.166000", "120716.166000", "120718.167000", "120720.167000", "120722.166000", "120724.167000", "120726.166000", "120728.165000", "120730.167000", "120732.167000", "120734.166000", "120736.166000", "120738.167000", "120740.187000", "120742.167000", "120744.165000", "120746.166000", "120748.166000", "120750.166000", "120752.167000", "120754.167000", "120756.166000", "120758.167000", "120800.166000", "120802.186000", "120804.166000", "120806.167000", "120808.167000", "120810.167000", "120812.166000", "120814.166000", "120816.167000", "120818.166000", "120820.165000", "120822.167000", "120824.166000", "120826.167000", "120828.166000", "120830.167000", "120832.166000", "120834.167000", "120836.165000", "120838.165000", "120840.167000", "120842.166000", "120844.166000", "120846.167000", "120848.166000", "120850.167000", "120852.187000", "120854.165000", "120856.166000", "120858.167000", "120900.168000", "120902.167000", "120904.166000", "120906.168000", "120908.168000", "120910.168000", "120912.167000", "120914.168000", "120916.168000", "120918.167000", "120920.168000", "120922.168000", "120924.168000", "120926.168000", "120928.167000", "120930.167000", "120932.168000", "120934.168000", "120936.168000", "120938.168000", "120939.761000"],
      "InstanceNumber": [1, 2, 3, 4, 5, 6, 7, 8, 9, 10, 11, 12, 13, 14, 15, 16, 17, 18, 19, 20, 21, 22, 23, 24, 25, 26, 27, 28, 29, 30, 31, 32, 33, 34, 35, 36, 37, 38, 39, 40, 41, 42, 43, 44, 45, 46, 47, 48, 49, 50, 51, 52, 53, 54, 55, 56, 57, 58, 59, 60, 61, 62, 63, 64, 65, 66, 67, 68, 69, 70, 71, 72, 73, 74, 75, 76, 77, 78, 79, 80, 81, 82, 83, 84, 85, 86, 87, 88, 89, 90, 91, 92, 93, 94, 95, 96, 97, 98, 99, 100, 101, 102, 103, 104, 105, 106, 107, 108, 109, 110, 111, 112, 113, 114, 115, 116, 117, 118, 119, 120, 121, 122, 123, 124, 125, 126, 127, 128, 129, 130, 131, 132, 133, 134, 135, 136, 137, 138, 139, 140, 141, 142, 143, 144, 145, 146, 147, 148, 149, 150, 151, 152, 153, 154, 155, 156, 157, 158, 159, 160, 161, 162, 163, 164, 165, 166, 167, 168, 169, 170, 171, 172, 173, 174, 175, 176, 177, 178, 179, 180, 181, 182, 183, 184, 185, 186, 187, 188, 189, 190, 191, 192, 193, 194, 195, 196, 197, 198, 199, 200, 201, 202, 203, 204, 205, 206, 207, 208, 209, 210, 211, 212, 213, 214, 215, 216, 217, 218, 219, 220, 221, 222, 223, 224, 225, 226, 227, 228, 229, 230, 231, 232, 233, 234, 235, 236, 237, 238, 239, 240, 241, 242, 243, 244, 245, 246, 247, 248, 249, 250, 251, 252, 253, 254, 255, 256, 257, 258, 259, 260, 261, 262, 263, 264, 265, 266, 267, 268, 269, 270, 271, 272, 273, 274, 275, 276, 277, 278, 279, 280, 281, 282, 283, 284, 285, 286, 287, 288, 289],
      "WindowCenter": [16710.0, 16683.0, 16678.0, 16665.0, 16673.0, 16670.0, 16669.0, 16650.0, 16669.0, 16650.0, 16646.0, 16646.0, 16649.0, 16649.0, 16641.0, 16659.0, 16636.0, 16663.0, 16652.0, 16656.0, 16645.0, 16662.0, 16641.0, 16643.0, 16650.0, 16643.0, 16636.0, 16647.0, 16652.0, 16659.0, 16649.0, 16655.0, 16642.0, 16669.0, 16653.0, 16650.0, 16645.0, 16648.0, 16639.0, 16645.0, 16656.0, 16646.0, 16663.0, 16653.0, 16642.0, 16648.0, 16649.0, 16640.0, 16646.0, 16652.0, 16648.0, 16671.0, 16664.0, 16657.0, 16669.0, 16659.0, 16661.0, 16676.0, 16651.0, 16658.0, 16665.0, 16658.0, 16664.0, 16657.0, 16660.0, 16680.0, 16681.0, 16685.0, 16665.0, 16665.0, 16664.0, 16678.0, 16674.0, 16670.0, 16664.0, 16653.0, 16674.0, 16680.0, 16682.0, 16683.0, 16700.0, 16665.0, 16696.0, 16689.0, 16693.0, 16719.0, 16676.0, 16683.0, 16650.0, 16685.0, 16682.0, 16678.0, 16694.0, 16686.0, 16697.0, 16695.0, 16688.0, 16695.0, 16700.0, 16692.0, 16688.0, 16676.0, 16694.0, 16676.0, 16694.0, 16684.0, 16691.0, 16677.0, 16693.0, 16699.0, 16672.0, 16700.0, 16696.0, 16700.0, 16706.0, 16701.0, 16699.0, 16680.0, 16699.0, 16699.0, 16696.0, 16681.0, 16689.0, 16701.0, 16699.0, 16709.0, 16705.0, 16692.0, 16704.0, 16695.0, 16702.0, 16701.0, 16718.0, 16709.0, 16698.0, 16712.0, 16699.0, 16715.0, 16720.0, 16697.0, 16703.0, 16699.0, 16693.0, 16700.0, 16703.0, 16704.0, 16711.0, 16711.0, 16708.0, 16703.0, 16713.0, 16715.0, 16712.0, 16706.0, 16705.0, 16704.0, 16719.0, 16708.0, 16710.0, 16713.0, 16721.0, 16719.0, 16721.0, 16716.0, 16692.0, 16722.0, 16727.0, 16705.0, 16722.0, 16721.0, 16718.0, 16731.0, 16735.0, 16732.0, 16721.0, 16721.0, 16720.0, 16731.0, 16730.0, 16727.0, 16726.0, 16714.0, 16720.0, 16723.0, 16723.0, 16699.0, 16706.0, 16713.0, 16730.0, 16720.0, 16712.0, 16708.0, 16723.0, 16737.0, 16721.0, 16729.0, 16700.0, 16722.0, 16731.0, 16734.0, 16722.0, 16737.0, 16713.0, 16725.0, 16750.0, 16742.0, 16744.0, 16735.0, 16721.0, 16743.0, 16731.0, 16734.0, 16730.0, 16721.0, 16723.0, 16731.0, 16734.0, 16743.0, 16737.0, 16744.0, 16734.0, 16718.0, 16736.0, 16736.0, 16739.0, 16745.0, 16741.0, 16741.0, 16724.0, 16735.0, 16736.0, 16741.0, 16740.0, 16732.0, 16733.0, 16733.0, 16739.0, 16741.0, 16733.0, 16743.0, 16723.0, 16737.0, 16739.0, 16731.0, 16731.0, 16741.0, 16736.0, 16733.0, 16740.0, 16735.0, 16739.0, 16734.0, 16745.0, 16749.0, 16742.0, 16739.0, 16725.0, 16733.0, 16740.0, 16743.0, 16739.0, 16748.0, 16715.0, 16716.0, 16736.0, 16737.0, 16741.0, 16742.0, 16742.0, 16738.0, 16730.0, 16733.0, 16725.0, 16748.0, 16728.0, 16731.0, 16741.0, 16739.0, 16741.0, 16748.0, 16736.0, 16745.0, 16736.0, 16750.0, 16747.0, 16748.0, 16751.0, 16725.0, 16736.0],
      "WindowWidth": [48065.0, 48031.0, 48090.0, 48106.0, 48058.0, 48070.0, 48084.0, 48097.0, 48070.0, 48005.0, 47975.0, 48015.0, 48044.0, 47991.0, 47972.0, 47947.0, 47955.0, 47999.0, 47994.0, 47919.0, 47911.0, 47948.0, 47933.0, 47961.0, 47965.0, 47935.0, 47943.0, 47989.0, 47967.0, 47946.0, 47954.0, 47918.0, 47910.0, 47928.0, 47968.0, 47955.0, 47937.0, 47926.0, 47946.0, 47977.0, 47970.0, 47977.0, 47976.0, 47969.0, 47975.0, 47952.0, 47952.0, 47973.0, 47978.0, 47955.0, 47940.0, 47917.0, 47911.0, 47921.0, 47929.0, 47897.0, 47886.0, 47882.0, 47877.0, 47895.0, 47887.0, 47868.0, 47874.0, 47869.0, 47924.0, 47963.0, 47925.0, 47864.0, 47837.0, 47901.0, 47940.0, 47950.0, 47947.0, 47945.0, 47952.0, 47959.0, 47908.0, 48015.0, 48081.0, 48070.0, 48029.0, 48031.0, 48000.0, 48048.0, 48091.0, 48016.0, 47935.0, 47900.0, 47917.0, 47941.0, 47964.0, 47950.0, 47895.0, 47876.0, 47858.0, 47883.0, 47904.0, 47923.0, 47899.0, 47881.0, 47929.0, 47989.0, 48012.0, 47948.0, 47921.0, 47915.0, 47932.0, 47950.0, 47922.0, 47873.0, 47894.0, 47979.0, 48002.0, 47979.0, 47944.0, 47940.0, 47912.0, 47939.0, 47925.0, 47900.0, 47871.0, 47886.0, 47893.0, 47939.0, 47938.0, 47919.0, 47916.0, 47908.0, 47916.0, 47936.0, 47941.0, 47928.0, 47900.0, 47933.0, 47939.0, 47960.0, 47965.0, 47923.0, 47888.0, 47872.0, 47891.0, 47964.0, 47987.0, 47966.0, 47928.0, 47942.0, 47987.0, 47973.0, 47945.0, 47993.0, 48002.0, 48003.0, 47949.0, 47983.0, 47994.0, 48021.0, 48005.0, 47984.0, 47985.0, 47987.0, 47993.0, 47953.0, 47941.0, 47989.0, 48040.0, 48047.0, 48024.0, 48048.0, 48059.0, 48045.0, 48018.0, 48025.0, 48041.0, 48041.0, 47995.0, 47993.0, 48020.0, 48012.0, 47947.0, 47919.0, 47945.0, 47976.0, 48018.0, 47995.0, 48007.0, 48081.0, 48087.0, 48027.0, 47959.0, 47938.0, 47921.0, 47969.0, 47994.0, 47990.0, 47941.0, 47920.0, 47965.0, 48045.0, 48039.0, 48002.0, 47955.0, 47966.0, 48014.0, 48009.0, 47973.0, 47916.0, 47918.0, 47977.0, 48006.0, 47969.0, 47949.0, 47962.0, 47973.0, 47979.0, 47981.0, 48013.0, 48015.0, 47997.0, 48016.0, 48009.0, 47976.0, 47952.0, 47952.0, 47952.0, 47928.0, 47956.0, 47942.0, 47930.0, 47918.0, 47912.0, 47964.0, 47994.0, 47953.0, 47923.0, 47937.0, 47950.0, 47966.0, 47941.0, 47885.0, 47904.0, 47917.0, 48003.0, 48006.0, 48000.0, 47974.0, 47956.0, 47965.0, 47990.0, 47968.0, 47938.0, 47941.0, 48002.0, 47999.0, 47973.0, 47917.0, 47901.0, 47918.0, 47938.0, 47981.0, 47995.0, 47966.0, 47933.0, 47899.0, 47964.0, 47978.0, 47966.0, 47968.0, 47956.0, 47969.0, 47993.0, 48014.0, 47963.0, 47946.0, 47948.0, 47961.0, 47975.0, 47995.0, 47982.0, 47997.0, 47987.0, 47966.0, 47985.0, 48005.0, 47975.0, 47947.0, 47922.0, 47912.0, 47984.0, 48005.0]
    },
    "slices": {}
  }
}