{
  "AcquisitionMatrixPE": 116,
  "AcquisitionNumber": 1,
  "AcquisitionTime": "12:24:25.352500",
  "BandwidthPerPixelPhaseEncode": 18.539,
  "BaseResolution": 116,
  "BodyPartExamined": "HEAD",
  "ConsistencyInfo": "N4_VD13D_LATEST_20130810",
  "ConversionSoftware": "dcm2niix",
  "ConversionSoftwareVersion": "v1.0.20190410  (JP2:OpenJPEG) (JP-LS:CharLS) GCC5.5.0",
  "DerivedVendorReportedEchoSpacing": 0.000930006,
  "DeviceSerialNumber": "66014",
  "DwellTime": 3e-06,
  "EchoTime": 0.03,
  "EchoTrainLength": 50,
  "EffectiveEchoSpacing": 0.000465003,
  "FlipAngle": 81,
  "ImageComments": "Unaliased_MB3_PE4",
  "ImageOrientationPatientDICOM": [0.999548, -0.0290181, 0.0078177, 0.0296659, 0.994316, -0.102256],
  "ImageType": [
    "ORIGINAL",
    "PRIMARY",
    "M",
    "MB",
    "ND",
    "MOSAIC"
],
  "ImagingFrequency": 123.261,
  "InPlanePhaseEncodingDirectionDICOM": "COL",
  "InstitutionAddress": "Yiheyuan_Road_5_Beijing_Haidian_CN_100871",
  "InstitutionName": "Peking_Univeristy",
  "InstitutionalDepartmentName": "Department",
  "MRAcquisitionType": "2D",
  "MagneticFieldStrength": 3,
  "Manufacturer": "Siemens",
  "ManufacturersModelName": "Prisma",
  "Modality": "MR",
  "MultibandAccelerationFactor": 3,
  "ParallelReductionFactorInPlane": 2,
  "PartialFourier": 0.875,
  "PatientPosition": "HFS",
  "PercentPhaseFOV": 100,
  "PhaseEncodingDirection": "j-",
  "PhaseEncodingSteps": 101,
  "PhaseResolution": 1,
  "PixelBandwidth": 1435,
  "ProcedureStepDescription": "Research_Projects_64CH",
  "ProtocolName": "mbep2d_bold_MB3_test3",
  "PulseSequenceDetails": "%CustomerSeq%_cmrr_mbep2d_bold",
  "ReceiveCoilActiveElements": "HC1-6",
  "ReceiveCoilName": "HeadNeck_64",
  "ReconMatrixPE": 116,
  "RefLinesPE": 44,
  "RepetitionTime": 2,
  "SAR": 0.0572239,
  "ScanOptions": "PFP_FS",
  "ScanningSequence": "EP",
  "SequenceName": "epfid2d1_116",
  "SequenceVariant": "SK_SS",
  "SeriesDescription": "mbep2d_bold_MB3_test3",
  "SeriesNumber": 9,
  "ShimSetting": [-3449, -2110, -1917, 382, 17, -155, 105, 43],
  "SliceThickness": 1.9,
  "SliceTiming": [0, 0.9075, 1.815, 0.7425, 1.65, 0.5775, 1.485, 0.4125, 1.32, 0.2475, 1.155, 0.0825, 0.99, 1.8975, 0.825, 1.7325, 0.66, 1.5675, 0.495, 1.4025, 0.33, 1.2375, 0.165, 1.0725, 0, 0.9075, 1.815, 0.7425, 1.65, 0.5775, 1.485, 0.4125, 1.32, 0.2475, 1.155, 0.0825, 0.99, 1.8975, 0.825, 1.7325, 0.66, 1.5675, 0.495, 1.4025, 0.33, 1.2375, 0.165, 1.0725, 0, 0.9075, 1.815, 0.7425, 1.65, 0.5775, 1.485, 0.4125, 1.32, 0.2475, 1.155, 0.0825, 0.99, 1.8975, 0.825, 1.7325, 0.66, 1.5675, 0.495, 1.4025, 0.33, 1.2375, 0.165, 1.0725],
  "SoftwareVersions": "syngo_MR_D13D",
  "SpacingBetweenSlices": 1.9,
  "StationName": "AWP66014",
  "TaskName": "retrieval",
  "TotalReadoutTime": 0.0534753,
  "TxRefAmp": 218.301,
  "WipMemBlock": "7bdc2fff-19ff-4012-a681-735c698617d4||Sequence: vd13d/master r/0735857; Nov 19 2014 09:21:40 by eja",
  "dcmmeta_affine": [
    [-1.8956950902938843, 0.05626298114657402, 0.009131358936429024, 104.99886322021484],
    [0.05503428354859352, 1.8857710361480713, -0.19463971257209778, -97.2634506225586],
    [0.014826664701104164, 0.19393421709537506, 1.889981985092163, -69.47807312011719],
    [0.0, 0.0, 0.0, 1.0]
],
  "dcmmeta_reorient_transform": [
    [0.0, -1.0, 0.0, 115.0],
    [1.0, 0.0, 0.0, 0.0],
    [0.0, 0.0, 1.0, 0.0],
    [0.0, 0.0, 0.0, 1.0]
],
  "dcmmeta_shape": [116, 116, 72, 289],
  "dcmmeta_slice_dim": 2,
  "dcmmeta_version": 0.6,
  "global": {
    "const": {
      "AcquisitionMatrix": [116, 0, 0, 116],
      "AngioFlag": "N",
      "BitsAllocated": 16,
      "BitsStored": 16,
      "BodyPartExamined": "HEAD",
      "Columns": 1044,
      "EchoNumbers": 1,
      "EchoTime": 30.0,
      "EchoTrainLength": 50,
      "FlipAngle": 81.0,
      "HighBit": 15,
      "ImageOrientationPatient": [0.99954831541174, -0.0290180768886, 0.0078176960319, 0.02966593549323, 0.99431564239335, -0.1022562250585],
      "ImagePositionPatient": [-1017.1776515714, -969.06208001916, 35.930270647987],
      "ImageType": [
        "ORIGINAL",
        "PRIMARY",
        "M",
        "MB",
        "ND",
        "MOSAIC"
],
      "ImagedNucleus": "1H",
      "ImagingFrequency": 123.260549,
      "InPlanePhaseEncodingDirection": "COL",
      "LargestImagePixelValue": 65535,
      "MRAcquisitionType": "2D",
      "MagneticFieldStrength": 3.0,
      "Manufacturer": "SIEMENS",
      "ManufacturerModelName": "Prisma",
      "Modality": "MR",
      "NumberOfAverages": 1.0,
      "NumberOfPhaseEncodingSteps": 101,
      "PercentPhaseFieldOfView": 100.0,
      "PercentSampling": 100.0,
      "PerformedProcedureStepStartTime": "114517.170000",
      "PhotometricInterpretation": "MONOCHROME2",
      "PixelBandwidth": 1435.0,
      "PixelRepresentation": 0,
      "PixelSpacing": [1.8965517282486, 1.8965517282486],
      "ProtocolName": "mbep2d_bold_MB3_test3",
      "RepetitionTime": 2000.0,
      "Rows": 1044,
      "SAR": 0.05722386884835,
      "SamplesPerPixel": 1,
      "ScanOptions": [
        "PFP",
        "FS"
],
      "ScanningSequence": "EP",
      "SequenceName": "epfid2d1_116",
      "SequenceVariant": [
        "SK",
        "SS"
],
      "SeriesDescription": "mbep2d_bold_MB3_test3",
      "SeriesNumber": 9,
      "SeriesTime": "122437.090000",
      "SliceLocation": -58.643258069162,
      "SliceThickness": 1.8999999761581,
      "SmallestImagePixelValue": 0,
      "SoftwareVersions": "syngo MR D13D",
      "SpacingBetweenSlices": 1.8999999712405,
      "SpecificCharacterSet": "ISO_IR 100",
      "StudyID": "1",
      "StudyTime": "114517.124000",
      "TimeOfLastCalibration": ["123723.000000", "123723.000000"],
      "TransmitCoilName": "Body",
      "VariableFlipAngleFlag": "N",
      "WindowCenterWidthExplanation": "Algo1",
      "dBdt": 0.0},
    "slices": {}
  },
  "time": {
    "samples": {
      "AcquisitionNumber": [1, 2, 3, 4, 5, 6, 7, 8, 9, 10, 11, 12, 13, 14, 15, 16, 17, 18, 19, 20, 21, 22, 23, 24, 25, 26, 27, 28, 29, 30, 31, 32, 33, 34, 35, 36, 37, 38, 39, 40, 41, 42, 43, 44, 45, 46, 47, 48, 49, 50, 51, 52, 53, 54, 55, 56, 57, 58, 59, 60, 61, 62, 63, 64, 65, 66, 67, 68, 69, 70, 71, 72, 73, 74, 75, 76, 77, 78, 79, 80, 81, 82, 83, 84, 85, 86, 87, 88, 89, 90, 91, 92, 93, 94, 95, 96, 97, 98, 99, 100, 101, 102, 103, 104, 105, 106, 107, 108, 109, 110, 111, 112, 113, 114, 115, 116, 117, 118, 119, 120, 121, 122, 123, 124, 125, 126, 127, 128, 129, 130, 131, 132, 133, 134, 135, 136, 137, 138, 139, 140, 141, 142, 143, 144, 145, 146, 147, 148, 149, 150, 151, 152, 153, 154, 155, 156, 157, 158, 159, 160, 161, 162, 163, 164, 165, 166, 167, 168, 169, 170, 171, 172, 173, 174, 175, 176, 177, 178, 179, 180, 181, 182, 183, 184, 185, 186, 187, 188, 189, 190, 191, 192, 193, 194, 195, 196, 197, 198, 199, 200, 201, 202, 203, 204, 205, 206, 207, 208, 209, 210, 211, 212, 213, 214, 215, 216, 217, 218, 219, 220, 221, 222, 223, 224, 225, 226, 227, 228, 229, 230, 231, 232, 233, 234, 235, 236, 237, 238, 239, 240, 241, 242, 243, 244, 245, 246, 247, 248, 249, 250, 251, 252, 253, 254, 255, 256, 257, 258, 259, 260, 261, 262, 263, 264, 265, 266, 267, 268, 269, 270, 271, 272, 273, 274, 275, 276, 277, 278, 279, 280, 281, 282, 283, 284, 285, 286, 287, 288, 289],
      "AcquisitionTime": ["122425.352500", "122427.352500", "122429.352500", "122431.352500", "122433.352500", "122435.352500", "122437.352500", "122439.352500", "122441.352500", "122443.352500", "122445.352500", "122447.352500", "122449.352500", "122451.352500", "122453.352500", "122455.352500", "122457.352500", "122459.352500", "122501.352500", "122503.352500", "122505.352500", "122507.352500", "122509.352500", "122511.352500", "122513.352500", "122515.352500", "122517.352500", "122519.352500", "122521.352500", "122523.352500", "122525.352500", "122527.352500", "122529.352500", "122531.352500", "122533.352500", "122535.352500", "122537.352500", "122539.352500", "122541.352500", "122543.352500", "122545.352500", "122547.352500", "122549.352500", "122551.352500", "122553.352500", "122555.352500", "122557.352500", "122559.352500", "122601.352500", "122603.352500", "122605.352500", "122607.352500", "122609.352500", "122611.352500", "122613.352500", "122615.352500", "122617.352500", "122619.352500", "122621.352500", "122623.352500", "122625.352500", "122627.352500", "122629.352500", "122631.352500", "122633.352500", "122635.352500", "122637.352500", "122639.352500", "122641.352500", "122643.352500", "122645.352500", "122647.352500", "122649.352500", "122651.352500", "122653.352500", "122655.352500", "122657.352500", "122659.352500", "122701.352500", "122703.352500", "122705.352500", "122707.352500", "122709.352500", "122711.352500", "122713.352500", "122715.352500", "122717.352500", "122719.352500", "122721.352500", "122723.352500", "122725.352500", "122727.352500", "122729.352500", "122731.352500", "122733.352500", "122735.352500", "122737.352500", "122739.352500", "122741.352500", "122743.352500", "122745.352500", "122747.352500", "122749.352500", "122751.352500", "122753.352500", "122755.352500", "122757.352500", "122759.352500", "122801.352500", "122803.352500", "122805.352500", "122807.352500", "122809.352500", "122811.352500", "122813.352500", "122815.355000", "122817.355000", "122819.355000", "122821.355000", "122823.355000", "122825.355000", "122827.355000", "122829.355000", "122831.355000", "122833.355000", "122835.355000", "122837.355000", "122839.355000", "122841.355000", "122843.355000", "122845.355000", "122847.355000", "122849.355000", "122851.355000", "122853.355000", "122855.355000", "122857.355000", "122859.355000", "122901.355000", "122903.355000", "122905.355000", "122907.355000", "122909.355000", "122911.355000", "122913.355000", "122915.355000", "122917.355000", "122919.355000", "122921.355000", "122923.355000", "122925.355000", "122927.355000", "122929.355000", "122931.355000", "122933.355000", "122935.355000", "122937.355000", "122939.355000", "122941.355000", "122943.355000", "122945.355000", "122947.355000", "122949.355000", "122951.355000", "122953.355000", "122955.355000", "122957.355000", "122959.355000", "123001.355000", "123003.355000", "123005.355000", "123007.355000", "123009.355000", "123011.355000", "123013.355000", "123015.355000", "123017.355000", "123019.355000", "123021.355000", "123023.355000", "123025.355000", "123027.355000", "123029.355000", "123031.355000", "123033.355000", "123035.355000", "123037.355000", "123039.355000", "123041.355000", "123043.355000", "123045.355000", "123047.355000", "123049.355000", "123051.355000", "123053.355000", "123055.355000", "123057.355000", "123059.355000", "123101.355000", "123103.355000", "123105.355000", "123107.355000", "123109.355000", "123111.355000", "123113.355000", "123115.355000", "123117.355000", "123119.355000", "123121.355000", "123123.355000", "123125.355000", "123127.355000", "123129.355000", "123131.355000", "123133.355000", "123135.355000", "123137.355000", "123139.355000", "123141.355000", "123143.355000", "123145.355000", "123147.355000", "123149.355000", "123151.355000", "123153.355000", "123155.355000", "123157.355000", "123159.355000", "123201.355000", "123203.355000", "123205.355000", "123207.355000", "123209.355000", "123211.355000", "123213.355000", "123215.355000", "123217.355000", "123219.355000", "123221.355000", "123223.355000", "123225.355000", "123227.355000", "123229.355000", "123231.355000", "123233.355000", "123235.355000", "123237.355000", "123239.355000", "123241.355000", "123243.355000", "123245.355000", "123247.355000", "123249.355000", "123251.355000", "123253.355000", "123255.355000", "123257.355000", "123259.355000", "123301.355000", "123303.355000", "123305.355000", "123307.355000", "123309.355000", "123311.355000", "123313.355000", "123315.355000", "123317.355000", "123319.355000", "123321.355000", "123323.355000", "123325.355000", "123327.355000", "123329.355000", "123331.355000", "123333.355000", "123335.355000", "123337.355000", "123339.355000", "123341.355000", "123343.355000", "123345.355000", "123347.355000", "123349.355000", "123351.355000", "123353.355000", "123355.355000", "123357.355000", "123359.355000", "123401.355000"],
      "ContentTime": ["122437.096000", "122438.089000", "122438.093000", "122439.088000", "122439.092000", "122440.088000", "122441.090000", "122442.589000", "122444.590000", "122446.590000", "122448.590000", "122450.589000", "122452.589000", "122454.590000", "122456.591000", "122458.590000", "122500.591000", "122502.590000", "122504.590000", "122506.590000", "122508.590000", "122510.590000", "122512.590000", "122514.590000", "122516.590000", "122518.590000", "122520.590000", "122522.590000", "122524.590000", "122526.590000", "122528.590000", "122530.589000", "122532.589000", "122534.589000", "122536.590000", "122538.590000", "122540.590000", "122542.590000", "122544.590000", "122546.590000", "122548.591000", "122550.588000", "122552.589000", "122554.590000", "122556.589000", "122558.590000", "122600.590000", "122602.590000", "122604.590000", "122606.590000", "122608.591000", "122610.590000", "122612.590000", "122614.590000", "122616.590000", "122618.589000", "122620.589000", "122622.590000", "122624.590000", "122626.590000", "122628.590000", "122630.590000", "122632.591000", "122634.590000", "122636.590000", "122638.590000", "122640.589000", "122642.589000", "122644.590000", "122646.588000", "122648.590000", "122650.590000", "122652.590000", "122654.590000", "122656.589000", "122658.590000", "122700.591000", "122702.590000", "122704.590000", "122706.590000", "122708.590000", "122710.590000", "122712.590000", "122714.590000", "122716.590000", "122718.590000", "122720.590000", "122722.590000", "122724.590000", "122726.590000", "122728.589000", "122730.590000", "122732.589000", "122734.590000", "122736.590000", "122738.590000", "122740.590000", "122742.590000", "122744.590000", "122746.590000", "122748.590000", "122750.590000", "122752.591000", "122754.590000", "122756.590000", "122758.590000", "122800.590000", "122802.589000", "122804.590000", "122806.590000", "122808.590000", "122810.589000", "122812.589000", "122814.590000", "122816.590000", "122818.590000", "122820.590000", "122822.590000", "122824.589000", "122826.590000", "122828.590000", "122830.589000", "122832.589000", "122834.589000", "122836.590000", "122838.589000", "122840.589000", "122842.589000", "122844.589000", "122846.589000", "122848.589000", "122850.589000", "122852.589000", "122854.589000", "122856.589000", "122858.589000", "122900.589000", "122902.590000", "122904.589000", "122906.589000", "122908.589000", "122910.589000", "122912.588000", "122914.590000", "122916.589000", "122918.588000", "122920.589000", "122922.589000", "122924.589000", "122926.589000", "122928.589000", "122930.589000", "122932.590000", "122934.589000", "122936.589000", "122938.589000", "122940.589000", "122942.589000", "122944.589000", "122946.588000", "122948.589000", "122950.588000", "122952.589000", "122954.589000", "122956.589000", "122958.589000", "123000.589000", "123002.589000", "123004.589000", "123006.589000", "123008.589000", "123010.589000", "123012.590000", "123014.589000", "123016.589000", "123018.589000", "123020.589000", "123022.589000", "123024.589000", "123026.590000", "123028.589000", "123030.589000", "123032.589000", "123034.589000", "123036.590000", "123038.589000", "123040.589000", "123042.590000", "123044.589000", "123046.589000", "123048.589000", "123050.590000", "123052.589000", "123054.589000", "123056.589000", "123058.589000", "123100.589000", "123102.589000", "123104.589000", "123106.589000", "123108.589000", "123110.590000", "123112.590000", "123114.590000", "123116.589000", "123118.589000", "123120.589000", "123122.590000", "123124.590000", "123126.590000", "123128.589000", "123130.590000", "123132.589000", "123134.589000", "123136.590000", "123138.589000", "123140.589000", "123142.590000", "123144.590000", "123146.590000", "123148.590000", "123150.590000", "123152.589000", "123154.590000", "123156.589000", "123158.590000", "123200.590000", "123202.590000", "123204.589000", "123206.589000", "123208.590000", "123210.590000", "123212.590000", "123214.589000", "123216.590000", "123218.590000", "123220.590000", "123222.590000", "123224.590000", "123226.590000", "123228.590000", "123230.590000", "123232.590000", "123234.590000", "123236.590000", "123238.590000", "123240.590000", "123242.590000", "123244.590000", "123246.590000", "123248.590000", "123250.590000", "123252.590000", "123254.590000", "123256.590000", "123258.590000", "123300.590000", "123302.589000", "123304.590000", "123306.590000", "123308.590000", "123310.590000", "123312.590000", "123314.590000", "123316.590000", "123318.590000", "123321.590000", "123322.589000", "123324.590000", "123326.590000", "123328.590000", "123330.590000", "123332.590000", "123334.590000", "123336.590000", "123338.590000", "123340.590000", "123342.589000", "123344.590000", "123346.590000", "123348.590000", "123350.590000", "123352.590000", "123354.590000", "123356.590000", "123358.590000", "123400.590000", "123402.590000", "123404.220000"],
      "InstanceCreationTime": ["122437.096000", "122438.089000", "122438.093000", "122439.088000", "122439.092000", "122440.088000", "122441.090000", "122442.589000", "122444.590000", "122446.590000", "122448.590000", "122450.589000", "122452.589000", "122454.590000", "122456.591000", "122458.590000", "122500.591000", "122502.590000", "122504.590000", "122506.590000", "122508.590000", "122510.590000", "122512.590000", "122514.590000", "122516.590000", "122518.590000", "122520.590000", "122522.590000", "122524.590000", "122526.590000", "122528.590000", "122530.589000", "122532.589000", "122534.589000", "122536.590000", "122538.590000", "122540.590000", "122542.590000", "122544.590000", "122546.590000", "122548.591000", "122550.588000", "122552.589000", "122554.590000", "122556.589000", "122558.590000", "122600.590000", "122602.590000", "122604.590000", "122606.590000", "122608.591000", "122610.590000", "122612.590000", "122614.590000", "122616.590000", "122618.589000", "122620.589000", "122622.590000", "122624.590000", "122626.590000", "122628.590000", "122630.590000", "122632.591000", "122634.590000", "122636.590000", "122638.590000", "122640.589000", "122642.589000", "122644.590000", "122646.588000", "122648.590000", "122650.590000", "122652.590000", "122654.590000", "122656.589000", "122658.590000", "122700.591000", "122702.590000", "122704.590000", "122706.590000", "122708.590000", "122710.590000", "122712.590000", "122714.590000", "122716.590000", "122718.590000", "122720.590000", "122722.590000", "122724.590000", "122726.590000", "122728.589000", "122730.590000", "122732.589000", "122734.590000", "122736.590000", "122738.590000", "122740.590000", "122742.590000", "122744.590000", "122746.590000", "122748.590000", "122750.590000", "122752.591000", "122754.590000", "122756.590000", "122758.590000", "122800.590000", "122802.589000", "122804.590000", "122806.590000", "122808.590000", "122810.589000", "122812.589000", "122814.590000", "122816.590000", "122818.590000", "122820.590000", "122822.590000", "122824.589000", "122826.590000", "122828.590000", "122830.589000", "122832.589000", "122834.589000", "122836.590000", "122838.589000", "122840.589000", "122842.589000", "122844.589000", "122846.589000", "122848.589000", "122850.589000", "122852.589000", "122854.589000", "122856.589000", "122858.589000", "122900.589000", "122902.590000", "122904.589000", "122906.589000", "122908.589000", "122910.589000", "122912.588000", "122914.590000", "122916.589000", "122918.588000", "122920.589000", "122922.589000", "122924.589000", "122926.589000", "122928.589000", "122930.589000", "122932.590000", "122934.589000", "122936.589000", "122938.589000", "122940.589000", "122942.589000", "122944.589000", "122946.588000", "122948.589000", "122950.588000", "122952.589000", "122954.589000", "122956.589000", "122958.589000", "123000.589000", "123002.589000", "123004.589000", "123006.589000", "123008.589000", "123010.589000", "123012.590000", "123014.589000", "123016.589000", "123018.589000", "123020.589000", "123022.589000", "123024.589000", "123026.590000", "123028.589000", "123030.589000", "123032.589000", "123034.589000", "123036.590000", "123038.589000", "123040.589000", "123042.590000", "123044.589000", "123046.589000", "123048.589000", "123050.590000", "123052.589000", "123054.589000", "123056.589000", "123058.589000", "123100.589000", "123102.589000", "123104.589000", "123106.589000", "123108.589000", "123110.590000", "123112.590000", "123114.590000", "123116.589000", "123118.589000", "123120.589000", "123122.590000", "123124.590000", "123126.590000", "123128.589000", "123130.590000", "123132.589000", "123134.589000", "123136.590000", "123138.589000", "123140.589000", "123142.590000", "123144.590000", "123146.590000", "123148.590000", "123150.590000", "123152.589000", "123154.590000", "123156.589000", "123158.590000", "123200.590000", "123202.590000", "123204.589000", "123206.589000", "123208.590000", "123210.590000", "123212.590000", "123214.589000", "123216.590000", "123218.590000", "123220.590000", "123222.590000", "123224.590000", "123226.590000", "123228.590000", "123230.590000", "123232.590000", "123234.590000", "123236.590000", "123238.590000", "123240.590000", "123242.590000", "123244.590000", "123246.590000", "123248.590000", "123250.590000", "123252.590000", "123254.590000", "123256.590000", "123258.590000", "123300.590000", "123302.589000", "123304.590000", "123306.590000", "123308.590000", "123310.590000", "123312.590000", "123314.590000", "123316.590000", "123318.590000", "123321.590000", "123322.589000", "123324.590000", "123326.590000", "123328.590000", "123330.590000", "123332.590000", "123334.590000", "123336.590000", "123338.590000", "123340.590000", "123342.589000", "123344.590000", "123346.590000", "123348.590000", "123350.590000", "123352.590000", "123354.590000", "123356.590000", "123358.590000", "123400.590000", "123402.590000", "123404.220000"],
      "InstanceNumber": [1, 2, 3, 4, 5, 6, 7, 8, 9, 10, 11, 12, 13, 14, 15, 16, 17, 18, 19, 20, 21, 22, 23, 24, 25, 26, 27, 28, 29, 30, 31, 32, 33, 34, 35, 36, 37, 38, 39, 40, 41, 42, 43, 44, 45, 46, 47, 48, 49, 50, 51, 52, 53, 54, 55, 56, 57, 58, 59, 60, 61, 62, 63, 64, 65, 66, 67, 68, 69, 70, 71, 72, 73, 74, 75, 76, 77, 78, 79, 80, 81, 82, 83, 84, 85, 86, 87, 88, 89, 90, 91, 92, 93, 94, 95, 96, 97, 98, 99, 100, 101, 102, 103, 104, 105, 106, 107, 108, 109, 110, 111, 112, 113, 114, 115, 116, 117, 118, 119, 120, 121, 122, 123, 124, 125, 126, 127, 128, 129, 130, 131, 132, 133, 134, 135, 136, 137, 138, 139, 140, 141, 142, 143, 144, 145, 146, 147, 148, 149, 150, 151, 152, 153, 154, 155, 156, 157, 158, 159, 160, 161, 162, 163, 164, 165, 166, 167, 168, 169, 170, 171, 172, 173, 174, 175, 176, 177, 178, 179, 180, 181, 182, 183, 184, 185, 186, 187, 188, 189, 190, 191, 192, 193, 194, 195, 196, 197, 198, 199, 200, 201, 202, 203, 204, 205, 206, 207, 208, 209, 210, 211, 212, 213, 214, 215, 216, 217, 218, 219, 220, 221, 222, 223, 224, 225, 226, 227, 228, 229, 230, 231, 232, 233, 234, 235, 236, 237, 238, 239, 240, 241, 242, 243, 244, 245, 246, 247, 248, 249, 250, 251, 252, 253, 254, 255, 256, 257, 258, 259, 260, 261, 262, 263, 264, 265, 266, 267, 268, 269, 270, 271, 272, 273, 274, 275, 276, 277, 278, 279, 280, 281, 282, 283, 284, 285, 286, 287, 288, 289],
      "WindowCenter": [16964.0, 16921.0, 16907.0, 16896.0, 16879.0, 16866.0, 16877.0, 16889.0, 16852.0, 16845.0, 16857.0, 16868.0, 16882.0, 16864.0, 16853.0, 16859.0, 16841.0, 16856.0, 16840.0, 16853.0, 16872.0, 16848.0, 16859.0, 16854.0, 16859.0, 16846.0, 16868.0, 16876.0, 16856.0, 16858.0, 16872.0, 16875.0, 16840.0, 16863.0, 16868.0, 16878.0, 16866.0, 16857.0, 16865.0, 16878.0, 16866.0, 16866.0, 16869.0, 16845.0, 16854.0, 16846.0, 16870.0, 16856.0, 16864.0, 16860.0, 16856.0, 16864.0, 16856.0, 16859.0, 16876.0, 16860.0, 16862.0, 16858.0, 16861.0, 16879.0, 16859.0, 16880.0, 16871.0, 16880.0, 16870.0, 16859.0, 16860.0, 16870.0, 16877.0, 16874.0, 16851.0, 16858.0, 16885.0, 16873.0, 16877.0, 16876.0, 16888.0, 16845.0, 16869.0, 16864.0, 16864.0, 16868.0, 16857.0, 16857.0, 16855.0, 16854.0, 16867.0, 16875.0, 16866.0, 16877.0, 16866.0, 16878.0, 16882.0, 16871.0, 16856.0, 16863.0, 16858.0, 16845.0, 16840.0, 16851.0, 16880.0, 16878.0, 16872.0, 16865.0, 16874.0, 16872.0, 16873.0, 16874.0, 16864.0, 16856.0, 16852.0, 16859.0, 16868.0, 16843.0, 16870.0, 16848.0, 16868.0, 16882.0, 16854.0, 16871.0, 16862.0, 16872.0, 16865.0, 16864.0, 16877.0, 16873.0, 16866.0, 16883.0, 16852.0, 16865.0, 16866.0, 16856.0, 16869.0, 16841.0, 16869.0, 16862.0, 16853.0, 16857.0, 16847.0, 16853.0, 16851.0, 16867.0, 16854.0, 16858.0, 16853.0, 16846.0, 16875.0, 16881.0, 16853.0, 16855.0, 16854.0, 16872.0, 16860.0, 16877.0, 16862.0, 16874.0, 16854.0, 16877.0, 16871.0, 16884.0, 16877.0, 16878.0, 16867.0, 16870.0, 16882.0, 16872.0, 16860.0, 16872.0, 16866.0, 16889.0, 16891.0, 16882.0, 16865.0, 16876.0, 16862.0, 16869.0, 16870.0, 16875.0, 16860.0, 16890.0, 16877.0, 16870.0, 16875.0, 16894.0, 16864.0, 16873.0, 16876.0, 16879.0, 16882.0, 16876.0, 16860.0, 16870.0, 16871.0, 16856.0, 16845.0, 16859.0, 16872.0, 16887.0, 16873.0, 16879.0, 16867.0, 16888.0, 16874.0, 16883.0, 16878.0, 16877.0, 16890.0, 16889.0, 16875.0, 16884.0, 16891.0, 16886.0, 16891.0, 16886.0, 16872.0, 16862.0, 16862.0, 16884.0, 16885.0, 16883.0, 16870.0, 16878.0, 16894.0, 16880.0, 16883.0, 16876.0, 16871.0, 16870.0, 16864.0, 16878.0, 16871.0, 16886.0, 16870.0, 16871.0, 16872.0, 16866.0, 16863.0, 16867.0, 16870.0, 16876.0, 16862.0, 16851.0, 16849.0, 16849.0, 16855.0, 16863.0, 16859.0, 16856.0, 16874.0, 16870.0, 16875.0, 16867.0, 16852.0, 16889.0, 16855.0, 16867.0, 16867.0, 16864.0, 16871.0, 16869.0, 16865.0, 16858.0, 16874.0, 16890.0, 16885.0, 16895.0, 16857.0, 16892.0, 16882.0, 16899.0, 16873.0, 16878.0, 16887.0, 16857.0, 16863.0, 16861.0, 16864.0, 16847.0, 16871.0, 16882.0, 16876.0, 16873.0, 16872.0, 16868.0, 16870.0, 16872.0, 16867.0, 16870.0, 16858.0],
      "WindowWidth": [48226.0, 48144.0, 48093.0, 48098.0, 48099.0, 48116.0, 48111.0, 48066.0, 48028.0, 48036.0, 48019.0, 47989.0, 47985.0, 47960.0, 47965.0, 47943.0, 47930.0, 47954.0, 47996.0, 48016.0, 47991.0, 47975.0, 47994.0, 48057.0, 48073.0, 48038.0, 47976.0, 47967.0, 48006.0, 48033.0, 48030.0, 47993.0, 48009.0, 48051.0, 48053.0, 48046.0, 48026.0, 48033.0, 47987.0, 47970.0, 47960.0, 47973.0, 47950.0, 47895.0, 47941.0, 47975.0, 47976.0, 48006.0, 48012.0, 47983.0, 47956.0, 47961.0, 47994.0, 48060.0, 48046.0, 47985.0, 47920.0, 47905.0, 47945.0, 47958.0, 47971.0, 47907.0, 47888.0, 47906.0, 47913.0, 47982.0, 48023.0, 47991.0, 47943.0, 47902.0, 47976.0, 48034.0, 48000.0, 47991.0, 47981.0, 47969.0, 47924.0, 47934.0, 47924.0, 47870.0, 47845.0, 47808.0, 47813.0, 47878.0, 47903.0, 47865.0, 47834.0, 47852.0, 47874.0, 47931.0, 47937.0, 47906.0, 47870.0, 47851.0, 47877.0, 47921.0, 47930.0, 47909.0, 47932.0, 47941.0, 47984.0, 48034.0, 48005.0, 47974.0, 47954.0, 47964.0, 47927.0, 47902.0, 47883.0, 47862.0, 47860.0, 47864.0, 47871.0, 47920.0, 47912.0, 47922.0, 47898.0, 47843.0, 47851.0, 47939.0, 47972.0, 47940.0, 47910.0, 47959.0, 47969.0, 47941.0, 47935.0, 47960.0, 47978.0, 47997.0, 47896.0, 47839.0, 47796.0, 47815.0, 47834.0, 47830.0, 47809.0, 47825.0, 47859.0, 47862.0, 47875.0, 47872.0, 47836.0, 47827.0, 47811.0, 47859.0, 47917.0, 47921.0, 47887.0, 47874.0, 47901.0, 47912.0, 47919.0, 47891.0, 47881.0, 47902.0, 47914.0, 47903.0, 47925.0, 47946.0, 47929.0, 47891.0, 47921.0, 47976.0, 47997.0, 47965.0, 47930.0, 47912.0, 47935.0, 47949.0, 47887.0, 47841.0, 47856.0, 47889.0, 47906.0, 47911.0, 47924.0, 47916.0, 47969.0, 47950.0, 47916.0, 47925.0, 47916.0, 47877.0, 47907.0, 47902.0, 47917.0, 47917.0, 47920.0, 47915.0, 47878.0, 47758.0, 47604.0, 47555.0, 47562.0, 47660.0, 47708.0, 47730.0, 47746.0, 47788.0, 47846.0, 47846.0, 47863.0, 47908.0, 47942.0, 47966.0, 47975.0, 47950.0, 47940.0, 47973.0, 48016.0, 48012.0, 47951.0, 47896.0, 47861.0, 47880.0, 47945.0, 47934.0, 47870.0, 47868.0, 47898.0, 47929.0, 47889.0, 47815.0, 47829.0, 47890.0, 47913.0, 47937.0, 47909.0, 47879.0, 47874.0, 47846.0, 47848.0, 47850.0, 47863.0, 47894.0, 47906.0, 47908.0, 47859.0, 47699.0, 47507.0, 47489.0, 47564.0, 47628.0, 47659.0, 47676.0, 47674.0, 47749.0, 47825.0, 47823.0, 47800.0, 47846.0, 47912.0, 47914.0, 47916.0, 47872.0, 47859.0, 47933.0, 47966.0, 47938.0, 47895.0, 47867.0, 47928.0, 47939.0, 47885.0, 47865.0, 47904.0, 47966.0, 48009.0, 47995.0, 47939.0, 47877.0, 47820.0, 47799.0, 47778.0, 47778.0, 47755.0, 47742.0, 47747.0, 47767.0, 47814.0, 47826.0, 47850.0, 47860.0, 47836.0, 47836.0, 47819.0, 47835.0, 47865.0]
    },
    "slices": {}
  }
}