{
  "AcquisitionMatrixPE": 116,
  "AcquisitionNumber": 1,
  "AcquisitionTime": "12:13:47.325000",
  "BandwidthPerPixelPhaseEncode": 18.539,
  "BaseResolution": 116,
  "BodyPartExamined": "HEAD",
  "ConsistencyInfo": "N4_VD13D_LATEST_20130810",
  "ConversionSoftware": "dcm2niix",
  "ConversionSoftwareVersion": "v1.0.20190410  (JP2:OpenJPEG) (JP-LS:CharLS) GCC5.5.0",
  "DerivedVendorReportedEchoSpacing": 0.000930006,
  "DeviceSerialNumber": "66014",
  "DwellTime": 3e-06,
  "EchoTime": 0.03,
  "EchoTrainLength": 50,
  "EffectiveEchoSpacing": 0.000465003,
  "FlipAngle": 81,
  "ImageComments": "Unaliased_MB3_PE4",
  "ImageOrientationPatientDICOM": [0.999548, -0.0290181, 0.0078177, 0.0296659, 0.994316, -0.102256],
  "ImageType": [
    "ORIGINAL",
    "PRIMARY",
    "M",
    "MB",
    "ND",
    "MOSAIC"
],
  "ImagingFrequency": 123.261,
  "InPlanePhaseEncodingDirectionDICOM": "COL",
  "InstitutionAddress": "Yiheyuan_Road_5_Beijing_Haidian_CN_100871",
  "InstitutionName": "Peking_Univeristy",
  "InstitutionalDepartmentName": "Department",
  "MRAcquisitionType": "2D",
  "MagneticFieldStrength": 3,
  "Manufacturer": "Siemens",
  "ManufacturersModelName": "Prisma",
  "Modality": "MR",
  "MultibandAccelerationFactor": 3,
  "ParallelReductionFactorInPlane": 2,
  "PartialFourier": 0.875,
  "PatientPosition": "HFS",
  "PercentPhaseFOV": 100,
  "PhaseEncodingDirection": "j-",
  "PhaseEncodingSteps": 101,
  "PhaseResolution": 1,
  "PixelBandwidth": 1435,
  "ProcedureStepDescription": "Research_Projects_64CH",
  "ProtocolName": "mbep2d_bold_MB3_test2",
  "PulseSequenceDetails": "%CustomerSeq%_cmrr_mbep2d_bold",
  "ReceiveCoilActiveElements": "HC1-6",
  "ReceiveCoilName": "HeadNeck_64",
  "ReconMatrixPE": 116,
  "RefLinesPE": 44,
  "RepetitionTime": 2,
  "SAR": 0.0572239,
  "ScanOptions": "PFP_FS",
  "ScanningSequence": "EP",
  "SequenceName": "epfid2d1_116",
  "SequenceVariant": "SK_SS",
  "SeriesDescription": "mbep2d_bold_MB3_test2",
  "SeriesNumber": 8,
  "ShimSetting": [-3449, -2110, -1917, 382, 17, -155, 105, 43],
  "SliceThickness": 1.9,
  "SliceTiming": [0, 0.9075, 1.815, 0.7425, 1.65, 0.5775, 1.485, 0.4125, 1.32, 0.2475, 1.155, 0.0825, 0.99, 1.8975, 0.825, 1.7325, 0.66, 1.5675, 0.495, 1.4025, 0.33, 1.2375, 0.165, 1.0725, 0, 0.9075, 1.815, 0.7425, 1.65, 0.5775, 1.485, 0.4125, 1.32, 0.2475, 1.155, 0.0825, 0.99, 1.8975, 0.825, 1.7325, 0.66, 1.5675, 0.495, 1.4025, 0.33, 1.2375, 0.165, 1.0725, 0, 0.9075, 1.815, 0.7425, 1.65, 0.5775, 1.485, 0.4125, 1.32, 0.2475, 1.155, 0.0825, 0.99, 1.8975, 0.825, 1.7325, 0.66, 1.5675, 0.495, 1.4025, 0.33, 1.2375, 0.165, 1.0725],
  "SoftwareVersions": "syngo_MR_D13D",
  "SpacingBetweenSlices": 1.9,
  "StationName": "AWP66014",
  "TaskName": "retrieval",
  "TotalReadoutTime": 0.0534753,
  "TxRefAmp": 218.301,
  "WipMemBlock": "80fcbc2c-44fb-4036-bd32-1e60b664bf51||Sequence: vd13d/master r/0735857; Nov 19 2014 09:21:40 by eja",
  "dcmmeta_affine": [
    [-1.8956950902938843, 0.05626298114657402, 0.009131358936429024, 104.99886322021484],
    [0.05503428354859352, 1.8857710361480713, -0.19463971257209778, -97.2634506225586],
    [0.014826664701104164, 0.19393421709537506, 1.889981985092163, -69.47807312011719],
    [0.0, 0.0, 0.0, 1.0]
],
  "dcmmeta_reorient_transform": [
    [0.0, -1.0, 0.0, 115.0],
    [1.0, 0.0, 0.0, 0.0],
    [0.0, 0.0, 1.0, 0.0],
    [0.0, 0.0, 0.0, 1.0]
],
  "dcmmeta_shape": [116, 116, 72, 289],
  "dcmmeta_slice_dim": 2,
  "dcmmeta_version": 0.6,
  "global": {
    "const": {
      "AcquisitionMatrix": [116, 0, 0, 116],
      "AngioFlag": "N",
      "BitsAllocated": 16,
      "BitsStored": 16,
      "BodyPartExamined": "HEAD",
      "Columns": 1044,
      "EchoNumbers": 1,
      "EchoTime": 30.0,
      "EchoTrainLength": 50,
      "FlipAngle": 81.0,
      "HighBit": 15,
      "ImageOrientationPatient": [0.99954831541174, -0.0290180768886, 0.0078176960319, 0.02966593549323, 0.99431564239335, -0.1022562250585],
      "ImagePositionPatient": [-1017.1776515714, -969.06208001916, 35.930270647987],
      "ImageType": [
        "ORIGINAL",
        "PRIMARY",
        "M",
        "MB",
        "ND",
        "MOSAIC"
],
      "ImagedNucleus": "1H",
      "ImagingFrequency": 123.260547,
      "InPlanePhaseEncodingDirection": "COL",
      "LargestImagePixelValue": 65535,
      "MRAcquisitionType": "2D",
      "MagneticFieldStrength": 3.0,
      "Manufacturer": "SIEMENS",
      "ManufacturerModelName": "Prisma",
      "Modality": "MR",
      "NumberOfAverages": 1.0,
      "NumberOfPhaseEncodingSteps": 101,
      "PercentPhaseFieldOfView": 100.0,
      "PercentSampling": 100.0,
      "PerformedProcedureStepStartTime": "114517.170000",
      "PhotometricInterpretation": "MONOCHROME2",
      "PixelBandwidth": 1435.0,
      "PixelRepresentation": 0,
      "PixelSpacing": [1.8965517282486, 1.8965517282486],
      "ProtocolName": "mbep2d_bold_MB3_test2",
      "RepetitionTime": 2000.0,
      "Rows": 1044,
      "SAR": 0.05722386884835,
      "SamplesPerPixel": 1,
      "ScanOptions": [
        "PFP",
        "FS"
],
      "ScanningSequence": "EP",
      "SequenceName": "epfid2d1_116",
      "SequenceVariant": [
        "SK",
        "SS"
],
      "SeriesDescription": "mbep2d_bold_MB3_test2",
      "SeriesNumber": 8,
      "SeriesTime": "121359.279000",
      "SliceLocation": -58.643258069162,
      "SliceThickness": 1.8999999761581,
      "SmallestImagePixelValue": 0,
      "SoftwareVersions": "syngo MR D13D",
      "SpacingBetweenSlices": 1.8999999712405,
      "SpecificCharacterSet": "ISO_IR 100",
      "StudyID": "1",
      "StudyTime": "114517.124000",
      "TimeOfLastCalibration": ["123723.000000", "123723.000000"],
      "TransmitCoilName": "Body",
      "VariableFlipAngleFlag": "N",
      "WindowCenterWidthExplanation": "Algo1",
      "dBdt": 0.0},
    "slices": {}
  },
  "time": {
    "samples": {
      "AcquisitionNumber": [1, 2, 3, 4, 5, 6, 7, 8, 9, 10, 11, 12, 13, 14, 15, 16, 17, 18, 19, 20, 21, 22, 23, 24, 25, 26, 27, 28, 29, 30, 31, 32, 33, 34, 35, 36, 37, 38, 39, 40, 41, 42, 43, 44, 45, 46, 47, 48, 49, 50, 51, 52, 53, 54, 55, 56, 57, 58, 59, 60, 61, 62, 63, 64, 65, 66, 67, 68, 69, 70, 71, 72, 73, 74, 75, 76, 77, 78, 79, 80, 81, 82, 83, 84, 85, 86, 87, 88, 89, 90, 91, 92, 93, 94, 95, 96, 97, 98, 99, 100, 101, 102, 103, 104, 105, 106, 107, 108, 109, 110, 111, 112, 113, 114, 115, 116, 117, 118, 119, 120, 121, 122, 123, 124, 125, 126, 127, 128, 129, 130, 131, 132, 133, 134, 135, 136, 137, 138, 139, 140, 141, 142, 143, 144, 145, 146, 147, 148, 149, 150, 151, 152, 153, 154, 155, 156, 157, 158, 159, 160, 161, 162, 163, 164, 165, 166, 167, 168, 169, 170, 171, 172, 173, 174, 175, 176, 177, 178, 179, 180, 181, 182, 183, 184, 185, 186, 187, 188, 189, 190, 191, 192, 193, 194, 195, 196, 197, 198, 199, 200, 201, 202, 203, 204, 205, 206, 207, 208, 209, 210, 211, 212, 213, 214, 215, 216, 217, 218, 219, 220, 221, 222, 223, 224, 225, 226, 227, 228, 229, 230, 231, 232, 233, 234, 235, 236, 237, 238, 239, 240, 241, 242, 243, 244, 245, 246, 247, 248, 249, 250, 251, 252, 253, 254, 255, 256, 257, 258, 259, 260, 261, 262, 263, 264, 265, 266, 267, 268, 269, 270, 271, 272, 273, 274, 275, 276, 277, 278, 279, 280, 281, 282, 283, 284, 285, 286, 287, 288, 289],
      "AcquisitionTime": ["121347.325000", "121349.325000", "121351.325000", "121353.325000", "121355.325000", "121357.325000", "121359.325000", "121401.325000", "121403.325000", "121405.325000", "121407.325000", "121409.325000", "121411.325000", "121413.325000", "121415.325000", "121417.325000", "121419.325000", "121421.325000", "121423.325000", "121425.325000", "121427.325000", "121429.325000", "121431.325000", "121433.325000", "121435.325000", "121437.325000", "121439.325000", "121441.325000", "121443.325000", "121445.325000", "121447.325000", "121449.325000", "121451.325000", "121453.325000", "121455.325000", "121457.325000", "121459.325000", "121501.325000", "121503.325000", "121505.325000", "121507.325000", "121509.325000", "121511.325000", "121513.325000", "121515.325000", "121517.325000", "121519.325000", "121521.325000", "121523.325000", "121525.325000", "121527.325000", "121529.325000", "121531.325000", "121533.325000", "121535.325000", "121537.325000", "121539.325000", "121541.325000", "121543.325000", "121545.325000", "121547.325000", "121549.325000", "121551.325000", "121553.325000", "121555.325000", "121557.325000", "121559.325000", "121601.325000", "121603.325000", "121605.325000", "121607.325000", "121609.325000", "121611.325000", "121613.325000", "121615.325000", "121617.325000", "121619.325000", "121621.325000", "121623.325000", "121625.325000", "121627.325000", "121629.325000", "121631.325000", "121633.325000", "121635.325000", "121637.325000", "121639.325000", "121641.325000", "121643.325000", "121645.325000", "121647.325000", "121649.325000", "121651.325000", "121653.325000", "121655.325000", "121657.325000", "121659.325000", "121701.325000", "121703.325000", "121705.325000", "121707.325000", "121709.325000", "121711.325000", "121713.325000", "121715.325000", "121717.325000", "121719.325000", "121721.325000", "121723.325000", "121725.325000", "121727.325000", "121729.327500", "121731.327500", "121733.327500", "121735.327500", "121737.327500", "121739.327500", "121741.327500", "121743.327500", "121745.327500", "121747.327500", "121749.327500", "121751.327500", "121753.327500", "121755.327500", "121757.327500", "121759.327500", "121801.327500", "121803.327500", "121805.327500", "121807.327500", "121809.327500", "121811.327500", "121813.327500", "121815.327500", "121817.327500", "121819.327500", "121821.327500", "121823.327500", "121825.327500", "121827.327500", "121829.327500", "121831.327500", "121833.327500", "121835.327500", "121837.327500", "121839.327500", "121841.327500", "121843.327500", "121845.327500", "121847.327500", "121849.327500", "121851.327500", "121853.327500", "121855.327500", "121857.327500", "121859.327500", "121901.327500", "121903.327500", "121905.327500", "121907.327500", "121909.327500", "121911.327500", "121913.327500", "121915.327500", "121917.327500", "121919.327500", "121921.327500", "121923.327500", "121925.327500", "121927.327500", "121929.327500", "121931.327500", "121933.327500", "121935.327500", "121937.327500", "121939.327500", "121941.327500", "121943.327500", "121945.327500", "121947.327500", "121949.327500", "121951.327500", "121953.327500", "121955.327500", "121957.327500", "121959.327500", "122001.327500", "122003.327500", "122005.327500", "122007.327500", "122009.327500", "122011.327500", "122013.327500", "122015.327500", "122017.327500", "122019.327500", "122021.327500", "122023.327500", "122025.327500", "122027.327500", "122029.327500", "122031.327500", "122033.327500", "122035.327500", "122037.327500", "122039.327500", "122041.327500", "122043.327500", "122045.327500", "122047.327500", "122049.327500", "122051.327500", "122053.327500", "122055.327500", "122057.327500", "122059.327500", "122101.327500", "122103.327500", "122105.327500", "122107.327500", "122109.327500", "122111.327500", "122113.327500", "122115.327500", "122117.327500", "122119.327500", "122121.327500", "122123.327500", "122125.327500", "122127.327500", "122129.327500", "122131.327500", "122133.327500", "122135.327500", "122137.327500", "122139.327500", "122141.327500", "122143.327500", "122145.327500", "122147.327500", "122149.327500", "122151.327500", "122153.327500", "122155.327500", "122157.327500", "122159.327500", "122201.327500", "122203.327500", "122205.327500", "122207.327500", "122209.327500", "122211.327500", "122213.327500", "122215.327500", "122217.327500", "122219.327500", "122221.327500", "122223.327500", "122225.327500", "122227.327500", "122229.327500", "122231.327500", "122233.327500", "122235.327500", "122237.327500", "122239.327500", "122241.327500", "122243.327500", "122245.327500", "122247.327500", "122249.327500", "122251.327500", "122253.327500", "122255.327500", "122257.327500", "122259.327500", "122301.327500", "122303.327500", "122305.327500", "122307.327500", "122309.327500", "122311.327500", "122313.327500", "122315.327500", "122317.327500", "122319.327500", "122321.327500", "122323.327500"],
      "ContentTime": ["121359.284000", "121400.278000", "121400.282000", "121401.278000", "121402.278000", "121402.282000", "121403.278000", "121404.279000", "121406.278000", "121408.278000", "121410.278000", "121412.279000", "121414.279000", "121416.279000", "121418.279000", "121420.278000", "121422.279000", "121424.279000", "121426.278000", "121428.278000", "121430.279000", "121432.279000", "121434.279000", "121436.278000", "121438.279000", "121440.279000", "121442.278000", "121444.279000", "121446.279000", "121448.279000", "121450.278000", "121452.280000", "121454.278000", "121456.279000", "121458.279000", "121500.278000", "121502.278000", "121504.279000", "121506.280000", "121508.278000", "121510.279000", "121512.279000", "121514.279000", "121516.279000", "121518.279000", "121520.278000", "121522.279000", "121524.279000", "121526.279000", "121528.279000", "121530.279000", "121532.278000", "121534.277000", "121536.279000", "121538.278000", "121540.279000", "121542.278000", "121544.279000", "121546.278000", "121548.280000", "121550.278000", "121552.278000", "121554.277000", "121556.279000", "121558.279000", "121600.280000", "121602.279000", "121604.279000", "121606.278000", "121608.279000", "121610.278000", "121612.279000", "121614.278000", "121616.279000", "121618.278000", "121620.279000", "121622.278000", "121624.279000", "121626.279000", "121628.280000", "121630.279000", "121632.280000", "121634.279000", "121636.277000", "121638.279000", "121640.279000", "121642.280000", "121644.279000", "121646.279000", "121648.279000", "121650.278000", "121652.282000", "121654.278000", "121656.281000", "121658.280000", "121700.280000", "121702.278000", "121704.279000", "121706.279000", "121708.280000", "121710.279000", "121712.279000", "121714.279000", "121716.280000", "121718.279000", "121720.279000", "121722.278000", "121724.278000", "121726.278000", "121728.278000", "121730.290000", "121732.279000", "121734.279000", "121736.279000", "121738.279000", "121740.278000", "121742.279000", "121744.279000", "121746.278000", "121748.279000", "121750.279000", "121752.280000", "121754.280000", "121756.279000", "121758.279000", "121800.279000", "121802.280000", "121804.279000", "121806.279000", "121808.278000", "121810.279000", "121812.280000", "121814.280000", "121816.280000", "121818.278000", "121820.279000", "121822.279000", "121824.279000", "121826.278000", "121828.279000", "121830.279000", "121832.280000", "121834.279000", "121836.279000", "121838.280000", "121840.279000", "121842.279000", "121844.279000", "121846.280000", "121848.279000", "121850.279000", "121852.279000", "121854.278000", "121856.279000", "121858.280000", "121900.279000", "121902.279000", "121904.279000", "121906.277000", "121908.280000", "121910.279000", "121912.279000", "121914.280000", "121916.279000", "121918.278000", "121920.279000", "121922.279000", "121924.279000", "121926.279000", "121928.279000", "121930.278000", "121932.279000", "121934.278000", "121936.279000", "121938.279000", "121940.278000", "121942.279000", "121944.280000", "121946.279000", "121948.277000", "121950.280000", "121952.278000", "121954.278000", "121956.280000", "121958.279000", "122000.277000", "122002.278000", "122004.279000", "122006.278000", "122008.279000", "122010.279000", "122012.278000", "122014.280000", "122016.278000", "122018.279000", "122020.278000", "122022.279000", "122024.279000", "122026.279000", "122028.279000", "122030.279000", "122032.278000", "122034.279000", "122036.279000", "122038.280000", "122040.278000", "122042.279000", "122044.279000", "122046.278000", "122048.278000", "122050.279000", "122052.277000", "122054.279000", "122056.279000", "122058.279000", "122100.280000", "122102.279000", "122104.279000", "122106.279000", "122108.279000", "122110.278000", "122112.279000", "122114.279000", "122116.279000", "122118.279000", "122120.279000", "122122.279000", "122124.280000", "122126.279000", "122128.279000", "122130.280000", "122132.279000", "122134.279000", "122136.278000", "122138.279000", "122140.279000", "122142.279000", "122144.279000", "122146.279000", "122148.279000", "122150.279000", "122152.278000", "122154.279000", "122156.279000", "122158.278000", "122200.278000", "122202.279000", "122204.279000", "122206.280000", "122208.279000", "122210.280000", "122212.280000", "122214.278000", "122216.280000", "122218.278000", "122220.278000", "122222.278000", "122224.280000", "122226.278000", "122228.280000", "122230.279000", "122232.278000", "122234.279000", "122236.280000", "122238.280000", "122240.279000", "122242.279000", "122244.279000", "122246.279000", "122248.280000", "122250.279000", "122252.279000", "122254.279000", "122256.279000", "122258.279000", "122300.279000", "122302.279000", "122304.279000", "122306.279000", "122308.278000", "122310.279000", "122312.278000", "122314.279000", "122316.279000", "122318.280000", "122320.280000", "122322.289000", "122324.279000", "122325.929000"],
      "InstanceCreationTime": ["121359.284000", "121400.278000", "121400.282000", "121401.278000", "121402.278000", "121402.282000", "121403.278000", "121404.279000", "121406.278000", "121408.278000", "121410.278000", "121412.279000", "121414.279000", "121416.279000", "121418.279000", "121420.278000", "121422.279000", "121424.279000", "121426.278000", "121428.278000", "121430.279000", "121432.279000", "121434.279000", "121436.278000", "121438.279000", "121440.279000", "121442.278000", "121444.279000", "121446.279000", "121448.279000", "121450.278000", "121452.280000", "121454.278000", "121456.279000", "121458.279000", "121500.278000", "121502.278000", "121504.279000", "121506.280000", "121508.278000", "121510.279000", "121512.279000", "121514.279000", "121516.279000", "121518.279000", "121520.278000", "121522.279000", "121524.279000", "121526.279000", "121528.279000", "121530.279000", "121532.278000", "121534.277000", "121536.279000", "121538.278000", "121540.279000", "121542.278000", "121544.279000", "121546.278000", "121548.280000", "121550.278000", "121552.278000", "121554.277000", "121556.279000", "121558.279000", "121600.280000", "121602.279000", "121604.279000", "121606.278000", "121608.279000", "121610.278000", "121612.279000", "121614.278000", "121616.279000", "121618.278000", "121620.279000", "121622.278000", "121624.279000", "121626.279000", "121628.280000", "121630.279000", "121632.280000", "121634.279000", "121636.277000", "121638.279000", "121640.279000", "121642.280000", "121644.279000", "121646.279000", "121648.279000", "121650.278000", "121652.282000", "121654.278000", "121656.281000", "121658.280000", "121700.280000", "121702.278000", "121704.279000", "121706.279000", "121708.280000", "121710.279000", "121712.279000", "121714.279000", "121716.280000", "121718.279000", "121720.279000", "121722.278000", "121724.278000", "121726.278000", "121728.278000", "121730.290000", "121732.279000", "121734.279000", "121736.279000", "121738.279000", "121740.278000", "121742.279000", "121744.279000", "121746.278000", "121748.279000", "121750.279000", "121752.280000", "121754.280000", "121756.279000", "121758.279000", "121800.279000", "121802.280000", "121804.279000", "121806.279000", "121808.278000", "121810.279000", "121812.280000", "121814.280000", "121816.280000", "121818.278000", "121820.279000", "121822.279000", "121824.279000", "121826.278000", "121828.279000", "121830.279000", "121832.280000", "121834.279000", "121836.279000", "121838.280000", "121840.279000", "121842.279000", "121844.279000", "121846.280000", "121848.279000", "121850.279000", "121852.279000", "121854.278000", "121856.279000", "121858.280000", "121900.279000", "121902.279000", "121904.279000", "121906.277000", "121908.280000", "121910.279000", "121912.279000", "121914.280000", "121916.279000", "121918.278000", "121920.279000", "121922.279000", "121924.279000", "121926.279000", "121928.279000", "121930.278000", "121932.279000", "121934.278000", "121936.279000", "121938.279000", "121940.278000", "121942.279000", "121944.280000", "121946.279000", "121948.277000", "121950.280000", "121952.278000", "121954.278000", "121956.280000", "121958.279000", "122000.277000", "122002.278000", "122004.279000", "122006.278000", "122008.279000", "122010.279000", "122012.278000", "122014.280000", "122016.278000", "122018.279000", "122020.278000", "122022.279000", "122024.279000", "122026.279000", "122028.279000", "122030.279000", "122032.278000", "122034.279000", "122036.279000", "122038.280000", "122040.278000", "122042.279000", "122044.279000", "122046.278000", "122048.278000", "122050.279000", "122052.277000", "122054.279000", "122056.279000", "122058.279000", "122100.280000", "122102.279000", "122104.279000", "122106.279000", "122108.279000", "122110.278000", "122112.279000", "122114.279000", "122116.279000", "122118.279000", "122120.279000", "122122.279000", "122124.280000", "122126.279000", "122128.279000", "122130.280000", "122132.279000", "122134.279000", "122136.278000", "122138.279000", "122140.279000", "122142.279000", "122144.279000", "122146.279000", "122148.279000", "122150.279000", "122152.278000", "122154.279000", "122156.279000", "122158.278000", "122200.278000", "122202.279000", "122204.279000", "122206.280000", "122208.279000", "122210.280000", "122212.280000", "122214.278000", "122216.280000", "122218.278000", "122220.278000", "122222.278000", "122224.280000", "122226.278000", "122228.280000", "122230.279000", "122232.278000", "122234.279000", "122236.280000", "122238.280000", "122240.279000", "122242.279000", "122244.279000", "122246.279000", "122248.280000", "122250.279000", "122252.279000", "122254.279000", "122256.279000", "122258.279000", "122300.279000", "122302.279000", "122304.279000", "122306.279000", "122308.278000", "122310.279000", "122312.278000", "122314.279000", "122316.279000", "122318.280000", "122320.280000", "122322.289000", "122324.279000", "122325.929000"],
      "InstanceNumber": [1, 2, 3, 4, 5, 6, 7, 8, 9, 10, 11, 12, 13, 14, 15, 16, 17, 18, 19, 20, 21, 22, 23, 24, 25, 26, 27, 28, 29, 30, 31, 32, 33, 34, 35, 36, 37, 38, 39, 40, 41, 42, 43, 44, 45, 46, 47, 48, 49, 50, 51, 52, 53, 54, 55, 56, 57, 58, 59, 60, 61, 62, 63, 64, 65, 66, 67, 68, 69, 70, 71, 72, 73, 74, 75, 76, 77, 78, 79, 80, 81, 82, 83, 84, 85, 86, 87, 88, 89, 90, 91, 92, 93, 94, 95, 96, 97, 98, 99, 100, 101, 102, 103, 104, 105, 106, 107, 108, 109, 110, 111, 112, 113, 114, 115, 116, 117, 118, 119, 120, 121, 122, 123, 124, 125, 126, 127, 128, 129, 130, 131, 132, 133, 134, 135, 136, 137, 138, 139, 140, 141, 142, 143, 144, 145, 146, 147, 148, 149, 150, 151, 152, 153, 154, 155, 156, 157, 158, 159, 160, 161, 162, 163, 164, 165, 166, 167, 168, 169, 170, 171, 172, 173, 174, 175, 176, 177, 178, 179, 180, 181, 182, 183, 184, 185, 186, 187, 188, 189, 190, 191, 192, 193, 194, 195, 196, 197, 198, 199, 200, 201, 202, 203, 204, 205, 206, 207, 208, 209, 210, 211, 212, 213, 214, 215, 216, 217, 218, 219, 220, 221, 222, 223, 224, 225, 226, 227, 228, 229, 230, 231, 232, 233, 234, 235, 236, 237, 238, 239, 240, 241, 242, 243, 244, 245, 246, 247, 248, 249, 250, 251, 252, 253, 254, 255, 256, 257, 258, 259, 260, 261, 262, 263, 264, 265, 266, 267, 268, 269, 270, 271, 272, 273, 274, 275, 276, 277, 278, 279, 280, 281, 282, 283, 284, 285, 286, 287, 288, 289],
      "WindowCenter": [16849.0, 16812.0, 16802.0, 16804.0, 16798.0, 16798.0, 16781.0, 16788.0, 16785.0, 16785.0, 16776.0, 16790.0, 16783.0, 16768.0, 16781.0, 16786.0, 16780.0, 16786.0, 16796.0, 16796.0, 16781.0, 16789.0, 16794.0, 16790.0, 16780.0, 16790.0, 16779.0, 16798.0, 16802.0, 16803.0, 16798.0, 16798.0, 16791.0, 16804.0, 16787.0, 16780.0, 16786.0, 16786.0, 16794.0, 16816.0, 16806.0, 16787.0, 16823.0, 16802.0, 16809.0, 16819.0, 16796.0, 16794.0, 16804.0, 16788.0, 16791.0, 16788.0, 16797.0, 16818.0, 16802.0, 16804.0, 16819.0, 16808.0, 16816.0, 16807.0, 16811.0, 16822.0, 16808.0, 16818.0, 16827.0, 16816.0, 16823.0, 16819.0, 16807.0, 16825.0, 16828.0, 16836.0, 16836.0, 16831.0, 16829.0, 16808.0, 16819.0, 16814.0, 16825.0, 16829.0, 16812.0, 16813.0, 16810.0, 16835.0, 16842.0, 16830.0, 16820.0, 16831.0, 16839.0, 16829.0, 16818.0, 16843.0, 16835.0, 16835.0, 16831.0, 16841.0, 16835.0, 16816.0, 16849.0, 16825.0, 16843.0, 16826.0, 16839.0, 16830.0, 16846.0, 16833.0, 16838.0, 16843.0, 16845.0, 16839.0, 16826.0, 16839.0, 16837.0, 16841.0, 16847.0, 16838.0, 16842.0, 16846.0, 16847.0, 16855.0, 16826.0, 16846.0, 16832.0, 16831.0, 16862.0, 16847.0, 16847.0, 16860.0, 16845.0, 16861.0, 16853.0, 16841.0, 16846.0, 16839.0, 16847.0, 16851.0, 16837.0, 16857.0, 16846.0, 16854.0, 16825.0, 16855.0, 16844.0, 16851.0, 16858.0, 16849.0, 16839.0, 16852.0, 16856.0, 16834.0, 16855.0, 16846.0, 16831.0, 16845.0, 16851.0, 16833.0, 16858.0, 16852.0, 16848.0, 16824.0, 16853.0, 16853.0, 16836.0, 16853.0, 16842.0, 16847.0, 16858.0, 16831.0, 16843.0, 16849.0, 16850.0, 16848.0, 16841.0, 16849.0, 16848.0, 16847.0, 16853.0, 16845.0, 16849.0, 16836.0, 16838.0, 16858.0, 16846.0, 16859.0, 16847.0, 16842.0, 16847.0, 16827.0, 16852.0, 16853.0, 16847.0, 16857.0, 16852.0, 16866.0, 16850.0, 16859.0, 16854.0, 16858.0, 16873.0, 16863.0, 16856.0, 16862.0, 16876.0, 16861.0, 16846.0, 16853.0, 16848.0, 16860.0, 16863.0, 16859.0, 16877.0, 16858.0, 16859.0, 16863.0, 16860.0, 16864.0, 16855.0, 16865.0, 16836.0, 16886.0, 16865.0, 16850.0, 16864.0, 16844.0, 16855.0, 16855.0, 16868.0, 16857.0, 16863.0, 16861.0, 16843.0, 16860.0, 16862.0, 16854.0, 16866.0, 16858.0, 16856.0, 16862.0, 16869.0, 16862.0, 16867.0, 16865.0, 16873.0, 16857.0, 16870.0, 16870.0, 16878.0, 16877.0, 16870.0, 16855.0, 16865.0, 16874.0, 16868.0, 16866.0, 16850.0, 16875.0, 16861.0, 16856.0, 16842.0, 16847.0, 16868.0, 16861.0, 16876.0, 16872.0, 16879.0, 16860.0, 16870.0, 16869.0, 16854.0, 16855.0, 16857.0, 16853.0, 16848.0, 16846.0, 16865.0, 16853.0, 16851.0, 16847.0, 16851.0, 16889.0, 16860.0, 16881.0, 16885.0, 16881.0, 16868.0, 16876.0, 16877.0, 16876.0, 16880.0],
      "WindowWidth": [48221.0, 48128.0, 48171.0, 48120.0, 48038.0, 48013.0, 48002.0, 47981.0, 48017.0, 48030.0, 47998.0, 47968.0, 47965.0, 47955.0, 47978.0, 48007.0, 48078.0, 48108.0, 48076.0, 47986.0, 47963.0, 47944.0, 47946.0, 48022.0, 48028.0, 47956.0, 47924.0, 47937.0, 48041.0, 48095.0, 48065.0, 48025.0, 48022.0, 48017.0, 48018.0, 48029.0, 48058.0, 48058.0, 48013.0, 47974.0, 47980.0, 47993.0, 47980.0, 47978.0, 47983.0, 48016.0, 48013.0, 48050.0, 48070.0, 48061.0, 48074.0, 48085.0, 48078.0, 48053.0, 48018.0, 47992.0, 47989.0, 47983.0, 47975.0, 48008.0, 48038.0, 48032.0, 48036.0, 48029.0, 48060.0, 48041.0, 47981.0, 47976.0, 48048.0, 48047.0, 48074.0, 48118.0, 48118.0, 48063.0, 48035.0, 48023.0, 48042.0, 48065.0, 48033.0, 47970.0, 47973.0, 48013.0, 48050.0, 48052.0, 48006.0, 47974.0, 47991.0, 48025.0, 48056.0, 48089.0, 48108.0, 48072.0, 48015.0, 48002.0, 48027.0, 48071.0, 48093.0, 48081.0, 48064.0, 48075.0, 48047.0, 48099.0, 48109.0, 48077.0, 48048.0, 48066.0, 48107.0, 48100.0, 48088.0, 48032.0, 48023.0, 48031.0, 48055.0, 48110.0, 48089.0, 48032.0, 48047.0, 48088.0, 48089.0, 48080.0, 48062.0, 48035.0, 48053.0, 48064.0, 48058.0, 48076.0, 48063.0, 48058.0, 48100.0, 48071.0, 48028.0, 48085.0, 48101.0, 48096.0, 48087.0, 48078.0, 48094.0, 48095.0, 48089.0, 48054.0, 48061.0, 48031.0, 48087.0, 48104.0, 48057.0, 48025.0, 48031.0, 48041.0, 48068.0, 48106.0, 48081.0, 48048.0, 48052.0, 48075.0, 48104.0, 48131.0, 48071.0, 48039.0, 48037.0, 48074.0, 48106.0, 48144.0, 48133.0, 48118.0, 48138.0, 48114.0, 48044.0, 48078.0, 48111.0, 48090.0, 48065.0, 48102.0, 48098.0, 48116.0, 48103.0, 48178.0, 48105.0, 47998.0, 47934.0, 47939.0, 47967.0, 48017.0, 48062.0, 48057.0, 48036.0, 48071.0, 48087.0, 48087.0, 48116.0, 48117.0, 48126.0, 48159.0, 48169.0, 48140.0, 48131.0, 48136.0, 48144.0, 48159.0, 48170.0, 48150.0, 48146.0, 48136.0, 48120.0, 48096.0, 48087.0, 48065.0, 48063.0, 48084.0, 48200.0, 48211.0, 48131.0, 48107.0, 48145.0, 48150.0, 48134.0, 48087.0, 48042.0, 48022.0, 48107.0, 48166.0, 48137.0, 48062.0, 48007.0, 48059.0, 48068.0, 48081.0, 48088.0, 48119.0, 48125.0, 48123.0, 48124.0, 48097.0, 48110.0, 48144.0, 48140.0, 48070.0, 48068.0, 48084.0, 48102.0, 48085.0, 48038.0, 48087.0, 48119.0, 48135.0, 48142.0, 48142.0, 48084.0, 48043.0, 48040.0, 48055.0, 48074.0, 48080.0, 48052.0, 47985.0, 48039.0, 48082.0, 48097.0, 48081.0, 48071.0, 48036.0, 48037.0, 48046.0, 48144.0, 48117.0, 48031.0, 48069.0, 48087.0, 48129.0, 48091.0, 48028.0, 47942.0, 47874.0, 47909.0, 47960.0, 47946.0, 47925.0, 47963.0, 48038.0, 48055.0, 48080.0, 48110.0, 48086.0, 48063.0, 48047.0, 48051.0, 48108.0, 48121.0, 48107.0, 48084.0]
    },
    "slices": {}
  }
}