{
  "AcquisitionMatrixPE": 116,
  "AcquisitionNumber": 1,
  "AcquisitionTime": "17:59:23.730000",
  "BandwidthPerPixelPhaseEncode": 18.539,
  "BaseResolution": 116,
  "BodyPartExamined": "HEAD",
  "ConsistencyInfo": "N4_VD13D_LATEST_20130810",
  "ConversionSoftware": "dcm2niix",
  "ConversionSoftwareVersion": "v1.0.20190410  (JP2:OpenJPEG) (JP-LS:CharLS) GCC5.5.0",
  "DerivedVendorReportedEchoSpacing": 0.000930006,
  "DeviceSerialNumber": "66014",
  "DwellTime": 3e-06,
  "EchoTime": 0.03,
  "EchoTrainLength": 50,
  "EffectiveEchoSpacing": 0.000465003,
  "FlipAngle": 81,
  "ImageComments": "Unaliased_MB3_PE4",
  "ImageOrientationPatientDICOM": [0.999624, -0.0244123, 0.0124771, 0.0244303, 0.999701, -0.00129005],
  "ImageType": [
    "ORIGINAL",
    "PRIMARY",
    "M",
    "MB",
    "ND",
    "MOSAIC"
],
  "ImagingFrequency": 123.261,
  "InPlanePhaseEncodingDirectionDICOM": "COL",
  "InstitutionAddress": "Yiheyuan_Road_5_Beijing_Haidian_CN_100871",
  "InstitutionName": "Peking_University",
  "InstitutionalDepartmentName": "Department",
  "MRAcquisitionType": "2D",
  "MagneticFieldStrength": 3,
  "Manufacturer": "Siemens",
  "ManufacturersModelName": "Prisma",
  "Modality": "MR",
  "MultibandAccelerationFactor": 3,
  "ParallelReductionFactorInPlane": 2,
  "PartialFourier": 0.875,
  "PatientPosition": "HFS",
  "PercentPhaseFOV": 100,
  "PhaseEncodingDirection": "j-",
  "PhaseEncodingSteps": 101,
  "PhaseResolution": 1,
  "PixelBandwidth": 1435,
  "ProcedureStepDescription": "Research_Projects_64CH",
  "ProtocolName": "mbep2d_bold_MB3_learn5",
  "PulseSequenceDetails": "%CustomerSeq%_cmrr_mbep2d_bold",
  "ReceiveCoilActiveElements": "HC1-6",
  "ReceiveCoilName": "HeadNeck_64",
  "ReconMatrixPE": 116,
  "RefLinesPE": 44,
  "RepetitionTime": 2,
  "SAR": 0.0497598,
  "ScanOptions": "PFP_FS",
  "ScanningSequence": "EP",
  "SequenceName": "epfid2d1_116",
  "SequenceVariant": "SK_SS",
  "SeriesDescription": "mbep2d_bold_MB3_learn5",
  "SeriesNumber": 10,
  "ShimSetting": [-3454, -2110, -1929, 417, -12, -299, 97, 30],
  "SliceThickness": 1.9,
  "SliceTiming": [0, 0.9075, 1.815, 0.7425, 1.65, 0.5775, 1.485, 0.4125, 1.32, 0.2475, 1.155, 0.0825, 0.99, 1.8975, 0.825, 1.7325, 0.66, 1.5675, 0.495, 1.4025, 0.33, 1.2375, 0.165, 1.0725, 0, 0.9075, 1.815, 0.7425, 1.65, 0.5775, 1.485, 0.4125, 1.32, 0.2475, 1.155, 0.0825, 0.99, 1.8975, 0.825, 1.7325, 0.66, 1.5675, 0.495, 1.4025, 0.33, 1.2375, 0.165, 1.0725, 0, 0.9075, 1.815, 0.7425, 1.65, 0.5775, 1.485, 0.4125, 1.32, 0.2475, 1.155, 0.0825, 0.99, 1.8975, 0.825, 1.7325, 0.66, 1.5675, 0.495, 1.4025, 0.33, 1.2375, 0.165, 1.0725],
  "SoftwareVersions": "syngo_MR_D13D",
  "SpacingBetweenSlices": 1.9,
  "StationName": "AWP66014",
  "TaskName": "updating",
  "TotalReadoutTime": 0.0534753,
  "TxRefAmp": 211.216,
  "WipMemBlock": "d3908759-5d3b-4c49-bb8a-0b0fffb52eef||Sequence: vd13d/master r/0735857; Nov 19 2014 09:21:40 by eja",
  "dcmmeta_affine": [
    [-1.8958388566970825, 0.04633328691124916, 0.023639585822820663, 105.81658935546875],
    [0.046299200505018234, 1.8959840536117554, -0.0030293366871774197, -95.87935638427734],
    [0.023663492873311043, 0.0024466526228934526, 1.899850606918335, -67.64344787597656],
    [0.0, 0.0, 0.0, 1.0]
],
  "dcmmeta_reorient_transform": [
    [0.0, -1.0, 0.0, 115.0],
    [1.0, 0.0, 0.0, 0.0],
    [0.0, 0.0, 1.0, 0.0],
    [0.0, 0.0, 0.0, 1.0]
],
  "dcmmeta_shape": [116, 116, 72, 218],
  "dcmmeta_slice_dim": 2,
  "dcmmeta_version": 0.6,
  "global": {
    "const": {
      "AcquisitionMatrix": [116, 0, 0, 116],
      "AngioFlag": "N",
      "BitsAllocated": 16,
      "BitsStored": 16,
      "BodyPartExamined": "HEAD",
      "Columns": 1044,
      "EchoNumbers": 1,
      "EchoTime": 30.0,
      "EchoTrainLength": 50,
      "FlipAngle": 81.0,
      "HighBit": 15,
      "ImageOrientationPatient": [0.99962410983256, -0.0244123054751, 0.01247711436397, 0.02443027820915, 0.99970070384553, -0.0012900532421],
      "ImagePositionPatient": [-1012.3127822966, -980.41260407255, -77.206698408156],
      "ImageType": [
        "ORIGINAL",
        "PRIMARY",
        "M",
        "MB",
        "ND",
        "MOSAIC"
],
      "ImagedNucleus": "1H",
      "ImagingFrequency": 123.260604,
      "InPlanePhaseEncodingDirection": "COL",
      "LargestImagePixelValue": 65535,
      "MRAcquisitionType": "2D",
      "MagneticFieldStrength": 3.0,
      "Manufacturer": "SIEMENS",
      "ManufacturerModelName": "Prisma",
      "Modality": "MR",
      "NumberOfAverages": 1.0,
      "NumberOfPhaseEncodingSteps": 101,
      "PercentPhaseFieldOfView": 100.0,
      "PercentSampling": 100.0,
      "PerformedProcedureStepStartTime": "171030.121000",
      "PhotometricInterpretation": "MONOCHROME2",
      "PixelBandwidth": 1435.0,
      "PixelRepresentation": 0,
      "PixelSpacing": [1.8965517282486, 1.8965517282486],
      "ProtocolName": "mbep2d_bold_MB3_learn5",
      "RepetitionTime": 2000.0,
      "Rows": 1044,
      "SAR": 0.04975984164727,
      "SamplesPerPixel": 1,
      "ScanOptions": [
        "PFP",
        "FS"
],
      "ScanningSequence": "EP",
      "SequenceName": "epfid2d1_116",
      "SequenceVariant": [
        "SK",
        "SS"
],
      "SeriesDescription": "mbep2d_bold_MB3_learn5",
      "SeriesNumber": 10,
      "SeriesTime": "175935.382000",
      "SliceLocation": -66.168700931157,
      "SliceThickness": 1.8999999761581,
      "SmallestImagePixelValue": 0,
      "SoftwareVersions": "syngo MR D13D",
      "SpacingBetweenSlices": 1.9000000311981,
      "SpecificCharacterSet": "ISO_IR 100",
      "StudyID": "1",
      "StudyTime": "171030.053000",
      "TimeOfLastCalibration": ["123723.000000", "123723.000000"],
      "TransmitCoilName": "Body",
      "VariableFlipAngleFlag": "N",
      "WindowCenterWidthExplanation": "Algo1",
      "dBdt": 0.0},
    "slices": {}
  },
  "time": {
    "samples": {
      "AcquisitionNumber": [1, 2, 3, 4, 5, 6, 7, 8, 9, 10, 11, 12, 13, 14, 15, 16, 17, 18, 19, 20, 21, 22, 23, 24, 25, 26, 27, 28, 29, 30, 31, 32, 33, 34, 35, 36, 37, 38, 39, 40, 41, 42, 43, 44, 45, 46, 47, 48, 49, 50, 51, 52, 53, 54, 55, 56, 57, 58, 59, 60, 61, 62, 63, 64, 65, 66, 67, 68, 69, 70, 71, 72, 73, 74, 75, 76, 77, 78, 79, 80, 81, 82, 83, 84, 85, 86, 87, 88, 89, 90, 91, 92, 93, 94, 95, 96, 97, 98, 99, 100, 101, 102, 103, 104, 105, 106, 107, 108, 109, 110, 111, 112, 113, 114, 115, 116, 117, 118, 119, 120, 121, 122, 123, 124, 125, 126, 127, 128, 129, 130, 131, 132, 133, 134, 135, 136, 137, 138, 139, 140, 141, 142, 143, 144, 145, 146, 147, 148, 149, 150, 151, 152, 153, 154, 155, 156, 157, 158, 159, 160, 161, 162, 163, 164, 165, 166, 167, 168, 169, 170, 171, 172, 173, 174, 175, 176, 177, 178, 179, 180, 181, 182, 183, 184, 185, 186, 187, 188, 189, 190, 191, 192, 193, 194, 195, 196, 197, 198, 199, 200, 201, 202, 203, 204, 205, 206, 207, 208, 209, 210, 211, 212, 213, 214, 215, 216, 217, 218],
      "AcquisitionTime": ["175923.730000", "175925.730000", "175927.730000", "175929.730000", "175931.730000", "175933.730000", "175935.730000", "175937.730000", "175939.730000", "175941.730000", "175943.730000", "175945.730000", "175947.730000", "175949.730000", "175951.730000", "175953.730000", "175955.730000", "175957.730000", "175959.730000", "180001.730000", "180003.730000", "180005.730000", "180007.730000", "180009.730000", "180011.730000", "180013.730000", "180015.730000", "180017.730000", "180019.730000", "180021.730000", "180023.730000", "180025.730000", "180027.730000", "180029.730000", "180031.730000", "180033.730000", "180035.730000", "180037.730000", "180039.730000", "180041.730000", "180043.730000", "180045.730000", "180047.730000", "180049.730000", "180051.730000", "180053.730000", "180055.730000", "180057.730000", "180059.730000", "180101.730000", "180103.730000", "180105.730000", "180107.730000", "180109.730000", "180111.730000", "180113.730000", "180115.730000", "180117.730000", "180119.730000", "180121.730000", "180123.730000", "180125.730000", "180127.730000", "180129.730000", "180131.730000", "180133.730000", "180135.730000", "180137.730000", "180139.730000", "180141.730000", "180143.730000", "180145.730000", "180147.730000", "180149.730000", "180151.730000", "180153.730000", "180155.730000", "180157.730000", "180159.730000", "180201.730000", "180203.730000", "180205.730000", "180207.730000", "180209.730000", "180211.730000", "180213.730000", "180215.730000", "180217.730000", "180219.730000", "180221.730000", "180223.730000", "180225.730000", "180227.730000", "180229.730000", "180231.730000", "180233.730000", "180235.730000", "180237.730000", "180239.730000", "180241.730000", "180243.730000", "180245.730000", "180247.730000", "180249.730000", "180251.732500", "180253.732500", "180255.732500", "180257.732500", "180259.732500", "180301.732500", "180303.732500", "180305.732500", "180307.732500", "180309.732500", "180311.732500", "180313.732500", "180315.732500", "180317.732500", "180319.732500", "180321.732500", "180323.732500", "180325.732500", "180327.732500", "180329.732500", "180331.732500", "180333.732500", "180335.732500", "180337.732500", "180339.732500", "180341.732500", "180343.732500", "180345.732500", "180347.732500", "180349.732500", "180351.732500", "180353.732500", "180355.732500", "180357.732500", "180359.732500", "180401.732500", "180403.732500", "180405.732500", "180407.732500", "180409.732500", "180411.732500", "180413.732500", "180415.732500", "180417.732500", "180419.732500", "180421.732500", "180423.732500", "180425.732500", "180427.732500", "180429.732500", "180431.732500", "180433.732500", "180435.732500", "180437.732500", "180439.732500", "180441.732500", "180443.732500", "180445.732500", "180447.732500", "180449.732500", "180451.732500", "180453.732500", "180455.732500", "180457.732500", "180459.732500", "180501.732500", "180503.732500", "180505.732500", "180507.732500", "180509.732500", "180511.732500", "180513.732500", "180515.732500", "180517.732500", "180519.732500", "180521.732500", "180523.732500", "180525.732500", "180527.732500", "180529.732500", "180531.732500", "180533.732500", "180535.732500", "180537.732500", "180539.732500", "180541.732500", "180543.732500", "180545.732500", "180547.732500", "180549.732500", "180551.732500", "180553.732500", "180555.732500", "180557.732500", "180559.732500", "180601.732500", "180603.732500", "180605.732500", "180607.732500", "180609.732500", "180611.732500", "180613.732500", "180615.732500", "180617.732500", "180619.732500", "180621.732500", "180623.732500", "180625.732500", "180627.732500", "180629.732500", "180631.732500", "180633.732500", "180635.732500", "180637.732500"],
      "ContentTime": ["175935.387000", "175936.380000", "175936.384000", "175937.381000", "175937.385000", "175938.382000", "175939.381000", "175940.882000", "175942.882000", "175944.882000", "175946.882000", "175948.881000", "175950.881000", "175952.881000", "175954.882000", "175956.882000", "175958.881000", "180000.882000", "180002.882000", "180004.879000", "180006.881000", "180008.882000", "180010.881000", "180012.882000", "180014.882000", "180016.882000", "180018.882000", "180020.882000", "180022.881000", "180024.881000", "180026.881000", "180028.881000", "180030.882000", "180032.882000", "180034.882000", "180036.882000", "180038.882000", "180040.881000", "180042.881000", "180044.880000", "180046.881000", "180048.882000", "180050.882000", "180052.882000", "180054.882000", "180056.882000", "180058.881000", "180100.881000", "180102.881000", "180104.882000", "180106.882000", "180108.882000", "180110.882000", "180112.882000", "180114.881000", "180116.881000", "180118.881000", "180120.881000", "180122.882000", "180124.882000", "180126.882000", "180128.882000", "180130.882000", "180132.881000", "180134.881000", "180136.881000", "180138.881000", "180140.882000", "180142.882000", "180144.882000", "180146.882000", "180148.882000", "180150.881000", "180152.881000", "180154.881000", "180156.881000", "180158.882000", "180200.882000", "180202.882000", "180204.882000", "180206.882000", "180208.880000", "180210.881000", "180212.881000", "180214.882000", "180216.882000", "180218.882000", "180220.882000", "180222.882000", "180224.881000", "180226.881000", "180228.881000", "180230.881000", "180232.882000", "180234.882000", "180236.882000", "180238.882000", "180240.882000", "180242.881000", "180244.881000", "180246.880000", "180248.880000", "180250.882000", "180252.882000", "180254.882000", "180256.882000", "180258.882000", "180300.881000", "180302.881000", "180304.881000", "180306.881000", "180308.882000", "180310.882000", "180312.882000", "180314.882000", "180316.882000", "180318.881000", "180320.881000", "180322.881000", "180324.882000", "180326.882000", "180328.882000", "180330.882000", "180332.882000", "180334.881000", "180336.881000", "180338.881000", "180340.881000", "180342.882000", "180344.882000", "180346.882000", "180348.882000", "180350.882000", "180352.882000", "180354.881000", "180356.881000", "180358.881000", "180400.882000", "180402.882000", "180404.881000", "180406.882000", "180408.882000", "180410.881000", "180412.881000", "180414.881000", "180416.881000", "180418.882000", "180420.883000", "180422.882000", "180424.882000", "180426.882000", "180428.881000", "180430.881000", "180432.882000", "180434.882000", "180436.882000", "180438.882000", "180440.882000", "180442.882000", "180444.881000", "180446.881000", "180448.881000", "180450.881000", "180452.882000", "180454.882000", "180456.882000", "180458.882000", "180500.882000", "180502.881000", "180504.881000", "180506.881000", "180508.881000", "180510.883000", "180512.882000", "180514.882000", "180516.882000", "180518.880000", "180520.881000", "180522.881000", "180524.881000", "180526.881000", "180528.883000", "180530.882000", "180532.882000", "180534.882000", "180536.882000", "180538.881000", "180540.881000", "180542.881000", "180544.882000", "180546.881000", "180548.882000", "180550.882000", "180552.882000", "180554.881000", "180556.881000", "180558.881000", "180600.881000", "180602.889000", "180604.882000", "180606.882000", "180608.882000", "180610.882000", "180612.881000", "180614.879000", "180616.881000", "180618.882000", "180620.882000", "180622.882000", "180624.882000", "180626.880000", "180628.882000", "180630.881000", "180632.881000", "180634.881000", "180636.881000", "180638.882000", "180640.452000"],
      "InstanceCreationTime": ["175935.387000", "175936.380000", "175936.384000", "175937.381000", "175937.385000", "175938.382000", "175939.381000", "175940.882000", "175942.882000", "175944.882000", "175946.882000", "175948.881000", "175950.881000", "175952.881000", "175954.882000", "175956.882000", "175958.881000", "180000.882000", "180002.882000", "180004.879000", "180006.881000", "180008.882000", "180010.881000", "180012.882000", "180014.882000", "180016.882000", "180018.882000", "180020.882000", "180022.881000", "180024.881000", "180026.881000", "180028.881000", "180030.882000", "180032.882000", "180034.882000", "180036.882000", "180038.882000", "180040.881000", "180042.881000", "180044.880000", "180046.881000", "180048.882000", "180050.882000", "180052.882000", "180054.882000", "180056.882000", "180058.881000", "180100.881000", "180102.881000", "180104.882000", "180106.882000", "180108.882000", "180110.882000", "180112.882000", "180114.881000", "180116.881000", "180118.881000", "180120.881000", "180122.882000", "180124.882000", "180126.882000", "180128.882000", "180130.882000", "180132.881000", "180134.881000", "180136.881000", "180138.881000", "180140.882000", "180142.882000", "180144.882000", "180146.882000", "180148.882000", "180150.881000", "180152.881000", "180154.881000", "180156.881000", "180158.882000", "180200.882000", "180202.882000", "180204.882000", "180206.882000", "180208.880000", "180210.881000", "180212.881000", "180214.882000", "180216.882000", "180218.882000", "180220.882000", "180222.882000", "180224.881000", "180226.881000", "180228.881000", "180230.881000", "180232.882000", "180234.882000", "180236.882000", "180238.882000", "180240.882000", "180242.881000", "180244.881000", "180246.880000", "180248.880000", "180250.882000", "180252.882000", "180254.882000", "180256.882000", "180258.882000", "180300.881000", "180302.881000", "180304.881000", "180306.881000", "180308.882000", "180310.882000", "180312.882000", "180314.882000", "180316.882000", "180318.881000", "180320.881000", "180322.881000", "180324.882000", "180326.882000", "180328.882000", "180330.882000", "180332.882000", "180334.881000", "180336.881000", "180338.881000", "180340.881000", "180342.882000", "180344.882000", "180346.882000", "180348.882000", "180350.882000", "180352.882000", "180354.881000", "180356.881000", "180358.881000", "180400.882000", "180402.882000", "180404.881000", "180406.882000", "180408.882000", "180410.881000", "180412.881000", "180414.881000", "180416.881000", "180418.882000", "180420.883000", "180422.882000", "180424.882000", "180426.882000", "180428.881000", "180430.881000", "180432.882000", "180434.882000", "180436.882000", "180438.882000", "180440.882000", "180442.882000", "180444.881000", "180446.881000", "180448.881000", "180450.881000", "180452.882000", "180454.882000", "180456.882000", "180458.882000", "180500.882000", "180502.881000", "180504.881000", "180506.881000", "180508.881000", "180510.883000", "180512.882000", "180514.882000", "180516.882000", "180518.880000", "180520.881000", "180522.881000", "180524.881000", "180526.881000", "180528.883000", "180530.882000", "180532.882000", "180534.882000", "180536.882000", "180538.881000", "180540.881000", "180542.881000", "180544.882000", "180546.881000", "180548.882000", "180550.882000", "180552.882000", "180554.881000", "180556.881000", "180558.881000", "180600.881000", "180602.889000", "180604.882000", "180606.882000", "180608.882000", "180610.882000", "180612.881000", "180614.879000", "180616.881000", "180618.882000", "180620.882000", "180622.882000", "180624.882000", "180626.880000", "180628.882000", "180630.881000", "180632.881000", "180634.881000", "180636.881000", "180638.882000", "180640.452000"],
      "InstanceNumber": [1, 2, 3, 4, 5, 6, 7, 8, 9, 10, 11, 12, 13, 14, 15, 16, 17, 18, 19, 20, 21, 22, 23, 24, 25, 26, 27, 28, 29, 30, 31, 32, 33, 34, 35, 36, 37, 38, 39, 40, 41, 42, 43, 44, 45, 46, 47, 48, 49, 50, 51, 52, 53, 54, 55, 56, 57, 58, 59, 60, 61, 62, 63, 64, 65, 66, 67, 68, 69, 70, 71, 72, 73, 74, 75, 76, 77, 78, 79, 80, 81, 82, 83, 84, 85, 86, 87, 88, 89, 90, 91, 92, 93, 94, 95, 96, 97, 98, 99, 100, 101, 102, 103, 104, 105, 106, 107, 108, 109, 110, 111, 112, 113, 114, 115, 116, 117, 118, 119, 120, 121, 122, 123, 124, 125, 126, 127, 128, 129, 130, 131, 132, 133, 134, 135, 136, 137, 138, 139, 140, 141, 142, 143, 144, 145, 146, 147, 148, 149, 150, 151, 152, 153, 154, 155, 156, 157, 158, 159, 160, 161, 162, 163, 164, 165, 166, 167, 168, 169, 170, 171, 172, 173, 174, 175, 176, 177, 178, 179, 180, 181, 182, 183, 184, 185, 186, 187, 188, 189, 190, 191, 192, 193, 194, 195, 196, 197, 198, 199, 200, 201, 202, 203, 204, 205, 206, 207, 208, 209, 210, 211, 212, 213, 214, 215, 216, 217, 218],
      "WindowCenter": [16026.0, 16012.0, 15984.0, 15989.0, 15984.0, 15996.0, 16006.0, 16020.0, 16040.0, 16029.0, 16022.0, 16000.0, 15999.0, 15994.0, 16005.0, 16019.0, 15996.0, 16005.0, 15994.0, 15973.0, 15979.0, 15986.0, 15985.0, 15981.0, 15989.0, 16006.0, 16028.0, 16021.0, 16027.0, 16024.0, 16016.0, 16019.0, 16010.0, 16003.0, 15996.0, 16010.0, 16014.0, 16027.0, 16022.0, 15999.0, 16010.0, 16006.0, 15980.0, 15978.0, 15970.0, 15979.0, 15985.0, 15989.0, 16006.0, 16024.0, 15996.0, 16009.0, 16021.0, 16033.0, 16029.0, 16027.0, 16014.0, 16008.0, 16011.0, 16023.0, 16024.0, 16012.0, 16022.0, 16026.0, 16028.0, 16045.0, 16056.0, 16051.0, 16039.0, 16031.0, 16012.0, 16019.0, 16010.0, 16016.0, 16026.0, 16021.0, 16012.0, 16040.0, 16055.0, 16056.0, 16045.0, 16048.0, 16029.0, 16033.0, 16021.0, 16027.0, 16044.0, 16025.0, 16010.0, 16022.0, 16024.0, 16038.0, 16046.0, 16035.0, 16028.0, 16004.0, 15974.0, 15982.0, 15987.0, 15997.0, 16003.0, 16019.0, 16036.0, 16018.0, 16014.0, 16017.0, 16006.0, 16011.0, 16006.0, 15979.0, 15996.0, 15990.0, 15989.0, 15979.0, 15971.0, 15990.0, 16006.0, 16021.0, 16012.0, 15985.0, 15966.0, 15954.0, 15974.0, 15984.0, 15999.0, 15980.0, 15990.0, 15990.0, 15998.0, 16000.0, 15997.0, 15980.0, 15987.0, 16002.0, 15998.0, 15970.0, 15970.0, 15955.0, 15967.0, 15975.0, 15979.0, 15993.0, 16017.0, 16014.0, 15997.0, 15962.0, 15955.0, 15952.0, 15970.0, 15952.0, 15963.0, 15968.0, 15994.0, 15998.0, 15989.0, 16008.0, 16017.0, 16020.0, 15993.0, 15991.0, 15991.0, 16027.0, 16003.0, 16015.0, 16002.0, 16001.0, 16002.0, 15991.0, 15986.0, 15991.0, 15989.0, 16016.0, 16011.0, 16018.0, 16030.0, 16024.0, 16015.0, 16019.0, 16026.0, 16052.0, 16075.0, 16059.0, 16064.0, 16052.0, 16046.0, 16048.0, 16032.0, 16012.0, 16016.0, 16039.0, 16046.0, 16048.0, 16039.0, 16038.0, 16026.0, 16039.0, 16037.0, 16056.0, 16065.0, 16067.0, 16038.0, 16022.0, 16018.0, 16013.0, 16001.0, 15999.0, 16019.0, 15999.0, 15991.0, 16001.0, 15996.0, 15968.0, 15982.0, 16004.0, 16004.0, 16010.0, 16019.0, 16024.0],
      "WindowWidth": [43695.0, 43560.0, 43499.0, 43515.0, 43512.0, 43553.0, 43619.0, 43704.0, 43738.0, 43728.0, 43662.0, 43596.0, 43528.0, 43550.0, 43635.0, 43631.0, 43541.0, 43505.0, 43422.0, 43401.0, 43423.0, 43417.0, 43416.0, 43451.0, 43502.0, 43552.0, 43573.0, 43555.0, 43601.0, 43639.0, 43631.0, 43579.0, 43526.0, 43542.0, 43525.0, 43568.0, 43599.0, 43654.0, 43665.0, 43611.0, 43554.0, 43427.0, 43343.0, 43299.0, 43304.0, 43315.0, 43419.0, 43492.0, 43524.0, 43526.0, 43554.0, 43596.0, 43626.0, 43705.0, 43702.0, 43708.0, 43569.0, 43577.0, 43583.0, 43612.0, 43654.0, 43642.0, 43623.0, 43683.0, 43754.0, 43801.0, 43761.0, 43741.0, 43712.0, 43645.0, 43611.0, 43646.0, 43664.0, 43638.0, 43598.0, 43578.0, 43668.0, 43767.0, 43810.0, 43786.0, 43744.0, 43748.0, 43698.0, 43685.0, 43676.0, 43653.0, 43656.0, 43623.0, 43567.0, 43607.0, 43650.0, 43693.0, 43728.0, 43733.0, 43656.0, 43446.0, 43363.0, 43387.0, 43405.0, 43455.0, 43507.0, 43633.0, 43718.0, 43645.0, 43625.0, 43541.0, 43491.0, 43440.0, 43356.0, 43339.0, 43413.0, 43418.0, 43378.0, 43267.0, 43222.0, 43408.0, 43522.0, 43468.0, 43371.0, 43275.0, 43156.0, 43123.0, 43255.0, 43320.0, 43375.0, 43367.0, 43392.0, 43405.0, 43374.0, 43363.0, 43374.0, 43259.0, 43322.0, 43419.0, 43342.0, 43244.0, 43218.0, 43124.0, 43163.0, 43230.0, 43262.0, 43303.0, 43480.0, 43475.0, 43317.0, 43089.0, 42984.0, 43040.0, 43058.0, 43065.0, 43104.0, 43181.0, 43236.0, 43294.0, 43410.0, 43444.0, 43452.0, 43412.0, 43355.0, 43381.0, 43450.0, 43486.0, 43491.0, 43406.0, 43310.0, 43352.0, 43393.0, 43382.0, 43361.0, 43353.0, 43408.0, 43461.0, 43500.0, 43539.0, 43525.0, 43514.0, 43465.0, 43453.0, 43570.0, 43638.0, 43636.0, 43673.0, 43679.0, 43650.0, 43573.0, 43521.0, 43409.0, 43375.0, 43433.0, 43527.0, 43559.0, 43548.0, 43526.0, 43535.0, 43524.0, 43527.0, 43557.0, 43684.0, 43705.0, 43693.0, 43550.0, 43490.0, 43448.0, 43415.0, 43324.0, 43331.0, 43403.0, 43304.0, 43324.0, 43280.0, 43161.0, 43121.0, 43181.0, 43261.0, 43313.0, 43390.0, 43467.0, 43528.0]
    },
    "slices": {}
  }
}