{
  "AcquisitionMatrixPE": 116,
  "AcquisitionNumber": 1,
  "AcquisitionTime": "17:35:0.830000",
  "BandwidthPerPixelPhaseEncode": 18.539,
  "BaseResolution": 116,
  "BodyPartExamined": "HEAD",
  "ConsistencyInfo": "N4_VD13D_LATEST_20130810",
  "ConversionSoftware": "dcm2niix",
  "ConversionSoftwareVersion": "v1.0.20190410  (JP2:OpenJPEG) (JP-LS:CharLS) GCC5.5.0",
  "DerivedVendorReportedEchoSpacing": 0.000930006,
  "DeviceSerialNumber": "66014",
  "DwellTime": 3e-06,
  "EchoTime": 0.03,
  "EchoTrainLength": 50,
  "EffectiveEchoSpacing": 0.000465003,
  "FlipAngle": 81,
  "ImageComments": "Unaliased_MB3_PE4",
  "ImageOrientationPatientDICOM": [0.999624, -0.0244123, 0.0124771, 0.0244303, 0.999701, -0.00129005],
  "ImageType": [
    "ORIGINAL",
    "PRIMARY",
    "M",
    "MB",
    "ND",
    "MOSAIC"
],
  "ImagingFrequency": 123.261,
  "InPlanePhaseEncodingDirectionDICOM": "COL",
  "InstitutionAddress": "Yiheyuan_Road_5_Beijing_Haidian_CN_100871",
  "InstitutionName": "Peking_University",
  "InstitutionalDepartmentName": "Department",
  "MRAcquisitionType": "2D",
  "MagneticFieldStrength": 3,
  "Manufacturer": "Siemens",
  "ManufacturersModelName": "Prisma",
  "Modality": "MR",
  "MultibandAccelerationFactor": 3,
  "ParallelReductionFactorInPlane": 2,
  "PartialFourier": 0.875,
  "PatientPosition": "HFS",
  "PercentPhaseFOV": 100,
  "PhaseEncodingDirection": "j-",
  "PhaseEncodingSteps": 101,
  "PhaseResolution": 1,
  "PixelBandwidth": 1435,
  "ProcedureStepDescription": "Research_Projects_64CH",
  "ProtocolName": "mbep2d_bold_MB3_learn2",
  "PulseSequenceDetails": "%CustomerSeq%_cmrr_mbep2d_bold",
  "ReceiveCoilActiveElements": "HC1-6",
  "ReceiveCoilName": "HeadNeck_64",
  "ReconMatrixPE": 116,
  "RefLinesPE": 44,
  "RepetitionTime": 2,
  "SAR": 0.0497598,
  "ScanOptions": "PFP_FS",
  "ScanningSequence": "EP",
  "SequenceName": "epfid2d1_116",
  "SequenceVariant": "SK_SS",
  "SeriesDescription": "mbep2d_bold_MB3_learn2",
  "SeriesNumber": 7,
  "ShimSetting": [-3454, -2110, -1929, 417, -12, -299, 97, 30],
  "SliceThickness": 1.9,
  "SliceTiming": [0, 0.9075, 1.815, 0.7425, 1.65, 0.5775, 1.485, 0.4125, 1.32, 0.2475, 1.155, 0.0825, 0.99, 1.8975, 0.825, 1.7325, 0.66, 1.5675, 0.495, 1.4025, 0.33, 1.2375, 0.165, 1.0725, 0, 0.9075, 1.815, 0.7425, 1.65, 0.5775, 1.485, 0.4125, 1.32, 0.2475, 1.155, 0.0825, 0.99, 1.8975, 0.825, 1.7325, 0.66, 1.5675, 0.495, 1.4025, 0.33, 1.2375, 0.165, 1.0725, 0, 0.9075, 1.815, 0.7425, 1.65, 0.5775, 1.485, 0.4125, 1.32, 0.2475, 1.155, 0.0825, 0.99, 1.8975, 0.825, 1.7325, 0.66, 1.5675, 0.495, 1.4025, 0.33, 1.2375, 0.165, 1.0725],
  "SoftwareVersions": "syngo_MR_D13D",
  "SpacingBetweenSlices": 1.9,
  "StationName": "AWP66014",
  "TaskName": "updating",
  "TotalReadoutTime": 0.0534753,
  "TxRefAmp": 211.216,
  "WipMemBlock": "2af0dbad-5e12-4f5b-bec6-b82b04357eaa||Sequence: vd13d/master r/0735857; Nov 19 2014 09:21:40 by eja",
  "dcmmeta_affine": [
    [-1.8958388566970825, 0.04633328691124916, 0.023639585822820663, 105.81658935546875],
    [0.046299200505018234, 1.8959840536117554, -0.0030293366871774197, -95.87935638427734],
    [0.023663492873311043, 0.0024466526228934526, 1.899850606918335, -67.64344787597656],
    [0.0, 0.0, 0.0, 1.0]
],
  "dcmmeta_reorient_transform": [
    [0.0, -1.0, 0.0, 115.0],
    [1.0, 0.0, 0.0, 0.0],
    [0.0, 0.0, 1.0, 0.0],
    [0.0, 0.0, 0.0, 1.0]
],
  "dcmmeta_shape": [116, 116, 72, 218],
  "dcmmeta_slice_dim": 2,
  "dcmmeta_version": 0.6,
  "global": {
    "const": {
      "AcquisitionMatrix": [116, 0, 0, 116],
      "AngioFlag": "N",
      "BitsAllocated": 16,
      "BitsStored": 16,
      "BodyPartExamined": "HEAD",
      "Columns": 1044,
      "EchoNumbers": 1,
      "EchoTime": 30.0,
      "EchoTrainLength": 50,
      "FlipAngle": 81.0,
      "HighBit": 15,
      "ImageOrientationPatient": [0.99962410983256, -0.0244123054751, 0.01247711436397, 0.02443027820915, 0.99970070384553, -0.0012900532421],
      "ImagePositionPatient": [-1012.3127822966, -980.41260407255, -77.206698408156],
      "ImageType": [
        "ORIGINAL",
        "PRIMARY",
        "M",
        "MB",
        "ND",
        "MOSAIC"
],
      "ImagedNucleus": "1H",
      "ImagingFrequency": 123.260599,
      "InPlanePhaseEncodingDirection": "COL",
      "LargestImagePixelValue": 65535,
      "MRAcquisitionType": "2D",
      "MagneticFieldStrength": 3.0,
      "Manufacturer": "SIEMENS",
      "ManufacturerModelName": "Prisma",
      "Modality": "MR",
      "NumberOfAverages": 1.0,
      "NumberOfPhaseEncodingSteps": 101,
      "PercentPhaseFieldOfView": 100.0,
      "PercentSampling": 100.0,
      "PerformedProcedureStepStartTime": "171030.121000",
      "PhotometricInterpretation": "MONOCHROME2",
      "PixelBandwidth": 1435.0,
      "PixelRepresentation": 0,
      "PixelSpacing": [1.8965517282486, 1.8965517282486],
      "ProtocolName": "mbep2d_bold_MB3_learn2",
      "RepetitionTime": 2000.0,
      "Rows": 1044,
      "SAR": 0.04975984164727,
      "SamplesPerPixel": 1,
      "ScanOptions": [
        "PFP",
        "FS"
],
      "ScanningSequence": "EP",
      "SequenceName": "epfid2d1_116",
      "SequenceVariant": [
        "SK",
        "SS"
],
      "SeriesDescription": "mbep2d_bold_MB3_learn2",
      "SeriesNumber": 7,
      "SeriesTime": "173512.732000",
      "SliceLocation": -66.168700931157,
      "SliceThickness": 1.8999999761581,
      "SmallestImagePixelValue": 0,
      "SoftwareVersions": "syngo MR D13D",
      "SpacingBetweenSlices": 1.9000000311981,
      "SpecificCharacterSet": "ISO_IR 100",
      "StudyID": "1",
      "StudyTime": "171030.053000",
      "TimeOfLastCalibration": ["123723.000000", "123723.000000"],
      "TransmitCoilName": "Body",
      "VariableFlipAngleFlag": "N",
      "WindowCenterWidthExplanation": "Algo1",
      "dBdt": 0.0},
    "slices": {}
  },
  "time": {
    "samples": {
      "AcquisitionNumber": [1, 2, 3, 4, 5, 6, 7, 8, 9, 10, 11, 12, 13, 14, 15, 16, 17, 18, 19, 20, 21, 22, 23, 24, 25, 26, 27, 28, 29, 30, 31, 32, 33, 34, 35, 36, 37, 38, 39, 40, 41, 42, 43, 44, 45, 46, 47, 48, 49, 50, 51, 52, 53, 54, 55, 56, 57, 58, 59, 60, 61, 62, 63, 64, 65, 66, 67, 68, 69, 70, 71, 72, 73, 74, 75, 76, 77, 78, 79, 80, 81, 82, 83, 84, 85, 86, 87, 88, 89, 90, 91, 92, 93, 94, 95, 96, 97, 98, 99, 100, 101, 102, 103, 104, 105, 106, 107, 108, 109, 110, 111, 112, 113, 114, 115, 116, 117, 118, 119, 120, 121, 122, 123, 124, 125, 126, 127, 128, 129, 130, 131, 132, 133, 134, 135, 136, 137, 138, 139, 140, 141, 142, 143, 144, 145, 146, 147, 148, 149, 150, 151, 152, 153, 154, 155, 156, 157, 158, 159, 160, 161, 162, 163, 164, 165, 166, 167, 168, 169, 170, 171, 172, 173, 174, 175, 176, 177, 178, 179, 180, 181, 182, 183, 184, 185, 186, 187, 188, 189, 190, 191, 192, 193, 194, 195, 196, 197, 198, 199, 200, 201, 202, 203, 204, 205, 206, 207, 208, 209, 210, 211, 212, 213, 214, 215, 216, 217, 218],
      "AcquisitionTime": ["173500.830000", "173502.830000", "173504.830000", "173506.830000", "173508.830000", "173510.830000", "173512.830000", "173514.830000", "173516.830000", "173518.830000", "173520.830000", "173522.830000", "173524.830000", "173526.830000", "173528.830000", "173530.830000", "173532.830000", "173534.830000", "173536.830000", "173538.830000", "173540.830000", "173542.830000", "173544.830000", "173546.830000", "173548.830000", "173550.830000", "173552.830000", "173554.830000", "173556.830000", "173558.830000", "173600.830000", "173602.830000", "173604.830000", "173606.830000", "173608.830000", "173610.830000", "173612.830000", "173614.830000", "173616.830000", "173618.830000", "173620.830000", "173622.830000", "173624.830000", "173626.830000", "173628.830000", "173630.830000", "173632.830000", "173634.830000", "173636.830000", "173638.830000", "173640.830000", "173642.830000", "173644.830000", "173646.830000", "173648.830000", "173650.830000", "173652.830000", "173654.830000", "173656.830000", "173658.830000", "173700.830000", "173702.830000", "173704.830000", "173706.830000", "173708.830000", "173710.830000", "173712.830000", "173714.830000", "173716.830000", "173718.830000", "173720.830000", "173722.830000", "173724.830000", "173726.830000", "173728.830000", "173730.830000", "173732.830000", "173734.830000", "173736.830000", "173738.830000", "173740.830000", "173742.830000", "173744.830000", "173746.830000", "173748.830000", "173750.830000", "173752.830000", "173754.830000", "173756.830000", "173758.830000", "173800.830000", "173802.830000", "173804.830000", "173806.830000", "173808.830000", "173810.830000", "173812.830000", "173814.830000", "173816.830000", "173818.830000", "173820.830000", "173822.830000", "173824.830000", "173826.830000", "173828.830000", "173830.830000", "173832.830000", "173834.830000", "173836.830000", "173838.830000", "173840.830000", "173842.830000", "173844.830000", "173846.830000", "173848.830000", "173850.830000", "173852.830000", "173854.830000", "173856.830000", "173858.830000", "173900.830000", "173902.830000", "173904.830000", "173906.830000", "173908.830000", "173910.830000", "173912.830000", "173914.830000", "173916.830000", "173918.832500", "173920.832500", "173922.832500", "173924.832500", "173926.832500", "173928.832500", "173930.832500", "173932.832500", "173934.832500", "173936.832500", "173938.832500", "173940.832500", "173942.832500", "173944.832500", "173946.832500", "173948.832500", "173950.832500", "173952.832500", "173954.832500", "173956.832500", "173958.832500", "174000.832500", "174002.832500", "174004.832500", "174006.832500", "174008.832500", "174010.832500", "174012.832500", "174014.832500", "174016.832500", "174018.832500", "174020.832500", "174022.832500", "174024.832500", "174026.832500", "174028.832500", "174030.832500", "174032.832500", "174034.832500", "174036.832500", "174038.832500", "174040.832500", "174042.832500", "174044.832500", "174046.832500", "174048.832500", "174050.832500", "174052.832500", "174054.832500", "174056.832500", "174058.832500", "174100.832500", "174102.832500", "174104.832500", "174106.832500", "174108.832500", "174110.832500", "174112.832500", "174114.832500", "174116.832500", "174118.832500", "174120.832500", "174122.832500", "174124.832500", "174126.832500", "174128.832500", "174130.832500", "174132.832500", "174134.832500", "174136.832500", "174138.832500", "174140.832500", "174142.832500", "174144.832500", "174146.832500", "174148.832500", "174150.832500", "174152.832500", "174154.832500", "174156.832500", "174158.832500", "174200.832500", "174202.832500", "174204.832500", "174206.832500", "174208.832500", "174210.832500", "174212.832500", "174214.832500"],
      "ContentTime": ["173512.737000", "173513.731000", "173513.735000", "173514.730000", "173514.735000", "173515.730000", "173516.731000", "173518.230000", "173520.232000", "173522.231000", "173524.231000", "173526.231000", "173528.231000", "173530.231000", "173532.231000", "173534.231000", "173536.231000", "173538.231000", "173540.231000", "173542.230000", "173544.231000", "173546.232000", "173548.231000", "173550.230000", "173552.231000", "173554.231000", "173556.231000", "173558.231000", "173600.230000", "173602.231000", "173604.232000", "173606.231000", "173608.231000", "173610.231000", "173612.231000", "173614.231000", "173616.231000", "173618.230000", "173620.231000", "173622.231000", "173624.231000", "173626.231000", "173628.231000", "173630.231000", "173632.231000", "173634.231000", "173636.231000", "173638.231000", "173640.231000", "173642.231000", "173644.231000", "173646.231000", "173648.231000", "173650.232000", "173652.230000", "173654.230000", "173656.231000", "173658.231000", "173700.231000", "173702.231000", "173704.231000", "173706.231000", "173708.231000", "173710.230000", "173712.232000", "173714.231000", "173716.245000", "173718.231000", "173720.231000", "173722.231000", "173724.231000", "173726.231000", "173728.230000", "173730.231000", "173732.231000", "173734.231000", "173736.231000", "173738.231000", "173740.231000", "173742.231000", "173744.231000", "173746.231000", "173748.232000", "173750.231000", "173752.231000", "173754.231000", "173756.231000", "173758.231000", "173800.231000", "173802.230000", "173804.231000", "173806.230000", "173808.230000", "173810.229000", "173812.230000", "173814.231000", "173816.231000", "173818.231000", "173820.230000", "173822.231000", "173824.231000", "173826.231000", "173828.231000", "173830.231000", "173832.230000", "173834.231000", "173836.231000", "173838.230000", "173840.231000", "173842.231000", "173844.231000", "173846.231000", "173848.231000", "173850.231000", "173852.231000", "173854.231000", "173856.231000", "173858.231000", "173900.231000", "173902.231000", "173904.231000", "173906.230000", "173908.231000", "173910.230000", "173912.229000", "173914.231000", "173916.231000", "173918.231000", "173920.231000", "173922.231000", "173924.229000", "173926.231000", "173928.231000", "173930.230000", "173932.231000", "173934.231000", "173936.231000", "173938.231000", "173940.231000", "173942.231000", "173944.231000", "173946.232000", "173948.230000", "173950.231000", "173952.231000", "173954.231000", "173956.231000", "173958.231000", "174000.231000", "174002.231000", "174004.231000", "174006.231000", "174008.231000", "174010.231000", "174012.231000", "174014.232000", "174016.231000", "174018.231000", "174020.231000", "174022.230000", "174024.231000", "174026.231000", "174028.231000", "174030.231000", "174032.231000", "174034.231000", "174036.231000", "174038.231000", "174040.228000", "174042.231000", "174044.231000", "174046.231000", "174048.231000", "174050.231000", "174052.231000", "174054.231000", "174056.229000", "174058.230000", "174100.231000", "174102.231000", "174104.231000", "174106.231000", "174108.231000", "174110.231000", "174112.231000", "174114.231000", "174116.231000", "174118.231000", "174120.231000", "174122.231000", "174124.231000", "174126.231000", "174128.231000", "174130.231000", "174132.230000", "174134.231000", "174136.231000", "174138.232000", "174140.231000", "174142.231000", "174144.231000", "174146.231000", "174148.231000", "174150.230000", "174152.231000", "174154.231000", "174156.231000", "174158.231000", "174200.231000", "174202.232000", "174204.231000", "174206.231000", "174208.230000", "174210.231000", "174212.231000", "174214.231000", "174216.231000", "174217.902000"],
      "InstanceCreationTime": ["173512.737000", "173513.731000", "173513.735000", "173514.730000", "173514.735000", "173515.730000", "173516.731000", "173518.230000", "173520.232000", "173522.231000", "173524.231000", "173526.231000", "173528.231000", "173530.231000", "173532.231000", "173534.231000", "173536.231000", "173538.231000", "173540.231000", "173542.230000", "173544.231000", "173546.232000", "173548.231000", "173550.230000", "173552.231000", "173554.231000", "173556.231000", "173558.231000", "173600.230000", "173602.231000", "173604.232000", "173606.231000", "173608.231000", "173610.231000", "173612.231000", "173614.231000", "173616.231000", "173618.230000", "173620.231000", "173622.231000", "173624.231000", "173626.231000", "173628.231000", "173630.231000", "173632.231000", "173634.231000", "173636.231000", "173638.231000", "173640.231000", "173642.231000", "173644.231000", "173646.231000", "173648.231000", "173650.232000", "173652.230000", "173654.230000", "173656.231000", "173658.231000", "173700.231000", "173702.231000", "173704.231000", "173706.231000", "173708.231000", "173710.230000", "173712.232000", "173714.231000", "173716.245000", "173718.231000", "173720.231000", "173722.231000", "173724.231000", "173726.231000", "173728.230000", "173730.231000", "173732.231000", "173734.231000", "173736.231000", "173738.231000", "173740.231000", "173742.231000", "173744.231000", "173746.231000", "173748.232000", "173750.231000", "173752.231000", "173754.231000", "173756.231000", "173758.231000", "173800.231000", "173802.230000", "173804.231000", "173806.230000", "173808.230000", "173810.229000", "173812.230000", "173814.231000", "173816.231000", "173818.231000", "173820.230000", "173822.231000", "173824.231000", "173826.231000", "173828.231000", "173830.231000", "173832.230000", "173834.231000", "173836.231000", "173838.230000", "173840.231000", "173842.231000", "173844.231000", "173846.231000", "173848.231000", "173850.231000", "173852.231000", "173854.231000", "173856.231000", "173858.231000", "173900.231000", "173902.231000", "173904.231000", "173906.230000", "173908.231000", "173910.230000", "173912.229000", "173914.231000", "173916.231000", "173918.231000", "173920.231000", "173922.231000", "173924.229000", "173926.231000", "173928.231000", "173930.230000", "173932.231000", "173934.231000", "173936.231000", "173938.231000", "173940.231000", "173942.231000", "173944.231000", "173946.232000", "173948.230000", "173950.231000", "173952.231000", "173954.231000", "173956.231000", "173958.231000", "174000.231000", "174002.231000", "174004.231000", "174006.231000", "174008.231000", "174010.231000", "174012.231000", "174014.232000", "174016.231000", "174018.231000", "174020.231000", "174022.230000", "174024.231000", "174026.231000", "174028.231000", "174030.231000", "174032.231000", "174034.231000", "174036.231000", "174038.231000", "174040.228000", "174042.231000", "174044.231000", "174046.231000", "174048.231000", "174050.231000", "174052.231000", "174054.231000", "174056.229000", "174058.230000", "174100.231000", "174102.231000", "174104.231000", "174106.231000", "174108.231000", "174110.231000", "174112.231000", "174114.231000", "174116.231000", "174118.231000", "174120.231000", "174122.231000", "174124.231000", "174126.231000", "174128.231000", "174130.231000", "174132.230000", "174134.231000", "174136.231000", "174138.232000", "174140.231000", "174142.231000", "174144.231000", "174146.231000", "174148.231000", "174150.230000", "174152.231000", "174154.231000", "174156.231000", "174158.231000", "174200.231000", "174202.232000", "174204.231000", "174206.231000", "174208.230000", "174210.231000", "174212.231000", "174214.231000", "174216.231000", "174217.902000"],
      "InstanceNumber": [1, 2, 3, 4, 5, 6, 7, 8, 9, 10, 11, 12, 13, 14, 15, 16, 17, 18, 19, 20, 21, 22, 23, 24, 25, 26, 27, 28, 29, 30, 31, 32, 33, 34, 35, 36, 37, 38, 39, 40, 41, 42, 43, 44, 45, 46, 47, 48, 49, 50, 51, 52, 53, 54, 55, 56, 57, 58, 59, 60, 61, 62, 63, 64, 65, 66, 67, 68, 69, 70, 71, 72, 73, 74, 75, 76, 77, 78, 79, 80, 81, 82, 83, 84, 85, 86, 87, 88, 89, 90, 91, 92, 93, 94, 95, 96, 97, 98, 99, 100, 101, 102, 103, 104, 105, 106, 107, 108, 109, 110, 111, 112, 113, 114, 115, 116, 117, 118, 119, 120, 121, 122, 123, 124, 125, 126, 127, 128, 129, 130, 131, 132, 133, 134, 135, 136, 137, 138, 139, 140, 141, 142, 143, 144, 145, 146, 147, 148, 149, 150, 151, 152, 153, 154, 155, 156, 157, 158, 159, 160, 161, 162, 163, 164, 165, 166, 167, 168, 169, 170, 171, 172, 173, 174, 175, 176, 177, 178, 179, 180, 181, 182, 183, 184, 185, 186, 187, 188, 189, 190, 191, 192, 193, 194, 195, 196, 197, 198, 199, 200, 201, 202, 203, 204, 205, 206, 207, 208, 209, 210, 211, 212, 213, 214, 215, 216, 217, 218],
      "WindowCenter": [15929.0, 15899.0, 15904.0, 15902.0, 15921.0, 15916.0, 15925.0, 15922.0, 15916.0, 15916.0, 15918.0, 15911.0, 15929.0, 15926.0, 15910.0, 15916.0, 15910.0, 15911.0, 15925.0, 15908.0, 15913.0, 15929.0, 15920.0, 15927.0, 15918.0, 15934.0, 15937.0, 15933.0, 15930.0, 15924.0, 15942.0, 15944.0, 15937.0, 15930.0, 15920.0, 15928.0, 15927.0, 15936.0, 15920.0, 15915.0, 15927.0, 15939.0, 15931.0, 15924.0, 15927.0, 15931.0, 15934.0, 15936.0, 15924.0, 15939.0, 15943.0, 15930.0, 15939.0, 15938.0, 15945.0, 15960.0, 15960.0, 15948.0, 15949.0, 15945.0, 15955.0, 15978.0, 15968.0, 15953.0, 15948.0, 15936.0, 15932.0, 15932.0, 15928.0, 15941.0, 15949.0, 15955.0, 15959.0, 15950.0, 15940.0, 15956.0, 15946.0, 15941.0, 15933.0, 15918.0, 15921.0, 15923.0, 15938.0, 15921.0, 15935.0, 15921.0, 15917.0, 15928.0, 15941.0, 15936.0, 15947.0, 15940.0, 15937.0, 15949.0, 15949.0, 15958.0, 15944.0, 15932.0, 15937.0, 15915.0, 15940.0, 15928.0, 15943.0, 15959.0, 15946.0, 15965.0, 15955.0, 15960.0, 15957.0, 15961.0, 15938.0, 15934.0, 15947.0, 15966.0, 15976.0, 15980.0, 15970.0, 15956.0, 15938.0, 15946.0, 15944.0, 15952.0, 15949.0, 15964.0, 15955.0, 15942.0, 15944.0, 15928.0, 15942.0, 15954.0, 15966.0, 15958.0, 15960.0, 15965.0, 15957.0, 15944.0, 15955.0, 15946.0, 15946.0, 15956.0, 15960.0, 15959.0, 15978.0, 15977.0, 15944.0, 15955.0, 15948.0, 15959.0, 15955.0, 15969.0, 15982.0, 15968.0, 15961.0, 15956.0, 15956.0, 15954.0, 15946.0, 15955.0, 15966.0, 15957.0, 15964.0, 15971.0, 15981.0, 15969.0, 15966.0, 15931.0, 15951.0, 15949.0, 15958.0, 15938.0, 15947.0, 15961.0, 15963.0, 15971.0, 15959.0, 15937.0, 15938.0, 15944.0, 15941.0, 15945.0, 15946.0, 15948.0, 15950.0, 15953.0, 15966.0, 15979.0, 15979.0, 15961.0, 15967.0, 15973.0, 15960.0, 15958.0, 15956.0, 15951.0, 15948.0, 15954.0, 15968.0, 15971.0, 15969.0, 15959.0, 15957.0, 15941.0, 15962.0, 15956.0, 15966.0, 15963.0, 15951.0, 15986.0, 15984.0, 15970.0, 15963.0, 15981.0, 15972.0, 15969.0, 15960.0, 15949.0, 15965.0, 15971.0],
      "WindowWidth": [43753.0, 43651.0, 43658.0, 43726.0, 43732.0, 43741.0, 43780.0, 43788.0, 43784.0, 43784.0, 43742.0, 43709.0, 43729.0, 43724.0, 43731.0, 43698.0, 43704.0, 43691.0, 43721.0, 43704.0, 43724.0, 43726.0, 43674.0, 43669.0, 43686.0, 43745.0, 43791.0, 43771.0, 43696.0, 43692.0, 43683.0, 43716.0, 43721.0, 43726.0, 43705.0, 43683.0, 43723.0, 43744.0, 43729.0, 43725.0, 43751.0, 43763.0, 43743.0, 43709.0, 43721.0, 43725.0, 43729.0, 43706.0, 43749.0, 43762.0, 43767.0, 43716.0, 43724.0, 43736.0, 43786.0, 43851.0, 43768.0, 43687.0, 43689.0, 43715.0, 43805.0, 43801.0, 43777.0, 43760.0, 43671.0, 43646.0, 43603.0, 43672.0, 43697.0, 43738.0, 43733.0, 43738.0, 43754.0, 43773.0, 43781.0, 43765.0, 43755.0, 43692.0, 43658.0, 43615.0, 43562.0, 43549.0, 43581.0, 43607.0, 43607.0, 43618.0, 43656.0, 43695.0, 43728.0, 43719.0, 43700.0, 43707.0, 43731.0, 43730.0, 43717.0, 43717.0, 43714.0, 43657.0, 43632.0, 43639.0, 43668.0, 43723.0, 43724.0, 43729.0, 43774.0, 43805.0, 43835.0, 43843.0, 43813.0, 43744.0, 43718.0, 43728.0, 43771.0, 43861.0, 43831.0, 43807.0, 43783.0, 43781.0, 43749.0, 43784.0, 43796.0, 43762.0, 43748.0, 43749.0, 43765.0, 43738.0, 43684.0, 43668.0, 43724.0, 43778.0, 43793.0, 43815.0, 43816.0, 43820.0, 43796.0, 43782.0, 43762.0, 43742.0, 43756.0, 43767.0, 43801.0, 43827.0, 43845.0, 43832.0, 43782.0, 43749.0, 43743.0, 43769.0, 43781.0, 43809.0, 43821.0, 43794.0, 43773.0, 43780.0, 43751.0, 43706.0, 43743.0, 43805.0, 43816.0, 43809.0, 43845.0, 43864.0, 43861.0, 43795.0, 43723.0, 43679.0, 43689.0, 43673.0, 43653.0, 43660.0, 43672.0, 43727.0, 43799.0, 43764.0, 43698.0, 43676.0, 43676.0, 43694.0, 43692.0, 43670.0, 43695.0, 43684.0, 43731.0, 43776.0, 43787.0, 43831.0, 43816.0, 43801.0, 43833.0, 43797.0, 43741.0, 43710.0, 43707.0, 43729.0, 43743.0, 43748.0, 43732.0, 43753.0, 43752.0, 43754.0, 43724.0, 43708.0, 43772.0, 43804.0, 43816.0, 43772.0, 43788.0, 43825.0, 43809.0, 43783.0, 43799.0, 43817.0, 43810.0, 43791.0, 43741.0, 43757.0, 43749.0, 43809.0]
    },
    "slices": {}
  }
}