{
  "AcquisitionMatrixPE": 116,
  "AcquisitionNumber": 1,
  "AcquisitionTime": "12:01:29.265000",
  "BandwidthPerPixelPhaseEncode": 18.539,
  "BaseResolution": 116,
  "BodyPartExamined": "HEAD",
  "ConsistencyInfo": "N4_VD13D_LATEST_20130810",
  "ConversionSoftware": "dcm2niix",
  "ConversionSoftwareVersion": "v1.0.20190410  (JP2:OpenJPEG) (JP-LS:CharLS) GCC5.5.0",
  "DerivedVendorReportedEchoSpacing": 0.000930006,
  "DeviceSerialNumber": "66014",
  "DwellTime": 3e-06,
  "EchoTime": 0.03,
  "EchoTrainLength": 50,
  "EffectiveEchoSpacing": 0.000465003,
  "FlipAngle": 81,
  "ImageComments": "Unaliased_MB3_PE4",
  "ImageOrientationPatientDICOM": [0.9999, -0.0135512, 0.00400989, 0.0139621, 0.991147, -0.132033],
  "ImageType": [
    "ORIGINAL",
    "PRIMARY",
    "M",
    "MB",
    "ND",
    "MOSAIC"
],
  "ImagingFrequency": 123.261,
  "InPlanePhaseEncodingDirectionDICOM": "COL",
  "InstitutionAddress": "Yiheyuan_Road_5_Beijing_Haidian_CN_100871",
  "InstitutionName": "Peking_University",
  "InstitutionalDepartmentName": "Department",
  "MRAcquisitionType": "2D",
  "MagneticFieldStrength": 3,
  "Manufacturer": "Siemens",
  "ManufacturersModelName": "Prisma",
  "Modality": "MR",
  "MultibandAccelerationFactor": 3,
  "ParallelReductionFactorInPlane": 2,
  "PartialFourier": 0.875,
  "PatientPosition": "HFS",
  "PercentPhaseFOV": 100,
  "PhaseEncodingDirection": "j-",
  "PhaseEncodingSteps": 101,
  "PhaseResolution": 1,
  "PixelBandwidth": 1435,
  "ProcedureStepDescription": "Research_Projects_64CH",
  "ProtocolName": "mbep2d_bold_MB3_learn1",
  "PulseSequenceDetails": "%CustomerSeq%_cmrr_mbep2d_bold",
  "ReceiveCoilActiveElements": "HC1-6",
  "ReceiveCoilName": "HeadNeck_64",
  "ReconMatrixPE": 116,
  "RefLinesPE": 44,
  "RepetitionTime": 2,
  "SAR": 0.0641984,
  "ScanOptions": "PFP_FS",
  "ScanningSequence": "EP",
  "SequenceName": "epfid2d1_116",
  "SequenceVariant": "SK_SS",
  "SeriesDescription": "mbep2d_bold_MB3_learn1",
  "SeriesNumber": 6,
  "ShimSetting": [-3444, -2095, -1949, 391, -12, -413, -37, 20],
  "SliceThickness": 1.9,
  "SliceTiming": [0, 0.905, 1.8125, 0.7425, 1.6475, 0.5775, 1.4825, 0.4125, 1.3175, 0.2475, 1.1525, 0.0825, 0.9875, 1.895, 0.825, 1.73, 0.66, 1.565, 0.495, 1.4, 0.33, 1.235, 0.165, 1.07, 0, 0.905, 1.8125, 0.7425, 1.6475, 0.5775, 1.4825, 0.4125, 1.3175, 0.2475, 1.1525, 0.0825, 0.9875, 1.895, 0.825, 1.73, 0.66, 1.565, 0.495, 1.4, 0.33, 1.235, 0.165, 1.07, 0, 0.905, 1.8125, 0.7425, 1.6475, 0.5775, 1.4825, 0.4125, 1.3175, 0.2475, 1.1525, 0.0825, 0.9875, 1.895, 0.825, 1.73, 0.66, 1.565, 0.495, 1.4, 0.33, 1.235, 0.165, 1.07],
  "SoftwareVersions": "syngo_MR_D13D",
  "SpacingBetweenSlices": 1.9,
  "StationName": "AWP66014",
  "TaskName": "updating",
  "TotalReadoutTime": 0.0534753,
  "TxRefAmp": 229.312,
  "WipMemBlock": "23ac6d49-a43c-4da4-abfb-3b065593fd19||Sequence: vd13d/master r/0735857; Nov 19 2014 09:21:40 by eja",
  "dcmmeta_affine": [
    [-1.8963623046875, 0.026479868218302727, 0.004151834640651941, 108.09095764160156],
    [0.02570064552128315, 1.8797614574432373, -0.25094446539878845, -91.00910949707031],
    [0.007604965474456549, 0.2504078447818756, 1.8833506107330322, -77.28755950927734],
    [0.0, 0.0, 0.0, 1.0]
],
  "dcmmeta_reorient_transform": [
    [0.0, -1.0, 0.0, 115.0],
    [1.0, 0.0, 0.0, 0.0],
    [0.0, 0.0, 1.0, 0.0],
    [0.0, 0.0, 0.0, 1.0]
],
  "dcmmeta_shape": [116, 116, 72, 218],
  "dcmmeta_slice_dim": 2,
  "dcmmeta_version": 0.6,
  "global": {
    "const": {
      "AcquisitionMatrix": [116, 0, 0, 116],
      "AngioFlag": "N",
      "BitsAllocated": 16,
      "BitsStored": 16,
      "BodyPartExamined": "HEAD",
      "Columns": 1044,
      "EchoNumbers": 1,
      "EchoTime": 30.0,
      "EchoTrainLength": 50,
      "FlipAngle": 81.0,
      "HighBit": 15,
      "ImageOrientationPatient": [0.9999001372264, -0.0135512489923, 0.00400989094344, 0.01396211231473, 0.9911469547938, -0.1320332284794],
      "ImagePositionPatient": [-1003.3349204808, -985.44768434339, 64.169877506555],
      "ImageType": [
        "ORIGINAL",
        "PRIMARY",
        "M",
        "MB",
        "ND",
        "MOSAIC"
],
      "ImagedNucleus": "1H",
      "ImagingFrequency": 123.260559,
      "InPlanePhaseEncodingDirection": "COL",
      "LargestImagePixelValue": 65535,
      "MRAcquisitionType": "2D",
      "MagneticFieldStrength": 3.0,
      "Manufacturer": "SIEMENS",
      "ManufacturerModelName": "Prisma",
      "Modality": "MR",
      "NumberOfAverages": 1.0,
      "NumberOfPhaseEncodingSteps": 101,
      "PercentPhaseFieldOfView": 100.0,
      "PercentSampling": 100.0,
      "PerformedProcedureStepStartTime": "114451.863000",
      "PhotometricInterpretation": "MONOCHROME2",
      "PixelBandwidth": 1435.0,
      "PixelRepresentation": 0,
      "PixelSpacing": [1.8965517282486, 1.8965517282486],
      "ProtocolName": "mbep2d_bold_MB3_learn1",
      "RepetitionTime": 2000.0,
      "Rows": 1044,
      "SAR": 0.06419842059997,
      "SamplesPerPixel": 1,
      "ScanOptions": [
        "PFP",
        "FS"
],
      "ScanningSequence": "EP",
      "SequenceName": "epfid2d1_116",
      "SequenceVariant": [
        "SK",
        "SS"
],
      "SeriesDescription": "mbep2d_bold_MB3_learn1",
      "SeriesNumber": 6,
      "SeriesTime": "120140.911000",
      "SliceLocation": -64.353985882947,
      "SliceThickness": 1.8999999761581,
      "SmallestImagePixelValue": 0,
      "SoftwareVersions": "syngo MR D13D",
      "SpacingBetweenSlices": 1.899999999033,
      "SpecificCharacterSet": "ISO_IR 100",
      "StudyID": "1",
      "StudyTime": "114451.782000",
      "TimeOfLastCalibration": ["123723.000000", "123723.000000"],
      "TransmitCoilName": "Body",
      "VariableFlipAngleFlag": "N",
      "WindowCenterWidthExplanation": "Algo1",
      "dBdt": 0.0},
    "slices": {}
  },
  "time": {
    "samples": {
      "AcquisitionNumber": [1, 2, 3, 4, 5, 6, 7, 8, 9, 10, 11, 12, 13, 14, 15, 16, 17, 18, 19, 20, 21, 22, 23, 24, 25, 26, 27, 28, 29, 30, 31, 32, 33, 34, 35, 36, 37, 38, 39, 40, 41, 42, 43, 44, 45, 46, 47, 48, 49, 50, 51, 52, 53, 54, 55, 56, 57, 58, 59, 60, 61, 62, 63, 64, 65, 66, 67, 68, 69, 70, 71, 72, 73, 74, 75, 76, 77, 78, 79, 80, 81, 82, 83, 84, 85, 86, 87, 88, 89, 90, 91, 92, 93, 94, 95, 96, 97, 98, 99, 100, 101, 102, 103, 104, 105, 106, 107, 108, 109, 110, 111, 112, 113, 114, 115, 116, 117, 118, 119, 120, 121, 122, 123, 124, 125, 126, 127, 128, 129, 130, 131, 132, 133, 134, 135, 136, 137, 138, 139, 140, 141, 142, 143, 144, 145, 146, 147, 148, 149, 150, 151, 152, 153, 154, 155, 156, 157, 158, 159, 160, 161, 162, 163, 164, 165, 166, 167, 168, 169, 170, 171, 172, 173, 174, 175, 176, 177, 178, 179, 180, 181, 182, 183, 184, 185, 186, 187, 188, 189, 190, 191, 192, 193, 194, 195, 196, 197, 198, 199, 200, 201, 202, 203, 204, 205, 206, 207, 208, 209, 210, 211, 212, 213, 214, 215, 216, 217, 218],
      "AcquisitionTime": ["120129.265000", "120131.265000", "120133.265000", "120135.265000", "120137.265000", "120139.265000", "120141.265000", "120143.265000", "120145.265000", "120147.265000", "120149.265000", "120151.265000", "120153.265000", "120155.265000", "120157.265000", "120159.265000", "120201.265000", "120203.265000", "120205.265000", "120207.265000", "120209.265000", "120211.265000", "120213.265000", "120215.265000", "120217.265000", "120219.265000", "120221.265000", "120223.265000", "120225.265000", "120227.265000", "120229.265000", "120231.265000", "120233.265000", "120235.265000", "120237.265000", "120239.265000", "120241.265000", "120243.265000", "120245.265000", "120247.265000", "120249.265000", "120251.265000", "120253.265000", "120255.265000", "120257.265000", "120259.265000", "120301.265000", "120303.265000", "120305.265000", "120307.265000", "120309.265000", "120311.265000", "120313.265000", "120315.265000", "120317.265000", "120319.265000", "120321.265000", "120323.265000", "120325.265000", "120327.265000", "120329.265000", "120331.265000", "120333.265000", "120335.265000", "120337.265000", "120339.265000", "120341.265000", "120343.265000", "120345.265000", "120347.265000", "120349.265000", "120351.265000", "120353.265000", "120355.265000", "120357.265000", "120359.265000", "120401.265000", "120403.265000", "120405.265000", "120407.265000", "120409.265000", "120411.265000", "120413.265000", "120415.265000", "120417.265000", "120419.265000", "120421.265000", "120423.265000", "120425.265000", "120427.265000", "120429.265000", "120431.265000", "120433.265000", "120435.265000", "120437.265000", "120439.265000", "120441.265000", "120443.265000", "120445.265000", "120447.265000", "120449.265000", "120451.265000", "120453.265000", "120455.265000", "120457.265000", "120459.265000", "120501.265000", "120503.265000", "120505.265000", "120507.265000", "120509.265000", "120511.265000", "120513.265000", "120515.265000", "120517.265000", "120519.265000", "120521.265000", "120523.265000", "120525.265000", "120527.265000", "120529.265000", "120531.265000", "120533.265000", "120535.265000", "120537.265000", "120539.265000", "120541.265000", "120543.265000", "120545.265000", "120547.265000", "120549.265000", "120551.265000", "120553.265000", "120555.265000", "120557.265000", "120559.265000", "120601.265000", "120603.265000", "120605.265000", "120607.265000", "120609.265000", "120611.265000", "120613.265000", "120615.265000", "120617.265000", "120619.265000", "120621.265000", "120623.265000", "120625.265000", "120627.265000", "120629.265000", "120631.265000", "120633.265000", "120635.265000", "120637.265000", "120639.265000", "120641.265000", "120643.265000", "120645.265000", "120647.265000", "120649.265000", "120651.265000", "120653.265000", "120655.265000", "120657.265000", "120659.265000", "120701.265000", "120703.265000", "120705.265000", "120707.265000", "120709.265000", "120711.265000", "120713.265000", "120715.265000", "120717.265000", "120719.265000", "120721.265000", "120723.265000", "120725.265000", "120727.265000", "120729.265000", "120731.265000", "120733.265000", "120735.265000", "120737.265000", "120739.265000", "120741.265000", "120743.265000", "120745.265000", "120747.265000", "120749.265000", "120751.265000", "120753.265000", "120755.265000", "120757.265000", "120759.265000", "120801.265000", "120803.265000", "120805.265000", "120807.265000", "120809.265000", "120811.265000", "120813.265000", "120815.265000", "120817.265000", "120819.265000", "120821.265000", "120823.265000", "120825.265000", "120827.265000", "120829.265000", "120831.265000", "120833.265000", "120835.265000", "120837.265000", "120839.265000", "120841.265000", "120843.265000"],
      "ContentTime": ["120140.916000", "120141.907000", "120141.911000", "120142.907000", "120142.911000", "120143.908000", "120144.908000", "120145.907000", "120147.909000", "120149.909000", "120151.909000", "120153.910000", "120155.910000", "120157.910000", "120159.909000", "120201.909000", "120203.909000", "120205.909000", "120207.909000", "120209.909000", "120211.909000", "120213.910000", "120215.910000", "120217.909000", "120219.909000", "120221.910000", "120223.909000", "120225.909000", "120227.909000", "120229.910000", "120231.910000", "120233.910000", "120235.909000", "120237.910000", "120239.909000", "120241.909000", "120243.909000", "120245.909000", "120247.910000", "120249.911000", "120251.909000", "120253.909000", "120255.909000", "120257.909000", "120259.909000", "120301.909000", "120303.909000", "120305.910000", "120307.910000", "120309.909000", "120311.909000", "120313.909000", "120315.909000", "120317.909000", "120319.909000", "120321.909000", "120323.910000", "120325.910000", "120327.909000", "120329.909000", "120331.910000", "120333.909000", "120335.909000", "120337.909000", "120339.910000", "120341.910000", "120343.910000", "120345.909000", "120347.909000", "120349.909000", "120351.909000", "120353.909000", "120355.907000", "120357.909000", "120359.909000", "120401.907000", "120403.907000", "120405.909000", "120407.909000", "120409.908000", "120412.407000", "120413.907000", "120415.908000", "120417.908000", "120419.907000", "120421.907000", "120423.907000", "120425.907000", "120427.908000", "120429.908000", "120431.908000", "120433.909000", "120435.909000", "120437.908000", "120439.907000", "120441.907000", "120443.907000", "120445.908000", "120447.909000", "120449.910000", "120451.909000", "120453.910000", "120455.909000", "120457.909000", "120459.907000", "120501.910000", "120503.909000", "120505.909000", "120507.910000", "120509.910000", "120511.909000", "120513.909000", "120515.909000", "120517.909000", "120519.909000", "120521.909000", "120523.909000", "120525.910000", "120527.910000", "120529.909000", "120531.909000", "120533.917000", "120535.909000", "120537.909000", "120539.908000", "120541.910000", "120543.910000", "120545.910000", "120547.909000", "120549.909000", "120551.909000", "120553.910000", "120555.909000", "120557.909000", "120559.910000", "120601.910000", "120603.910000", "120605.909000", "120607.909000", "120609.909000", "120611.907000", "120613.909000", "120615.909000", "120617.911000", "120619.909000", "120621.909000", "120623.909000", "120625.909000", "120627.909000", "120629.909000", "120631.909000", "120633.909000", "120635.910000", "120637.910000", "120639.909000", "120641.909000", "120643.909000", "120645.909000", "120647.909000", "120649.909000", "120651.910000", "120653.910000", "120655.910000", "120657.909000", "120659.910000", "120701.909000", "120703.908000", "120705.910000", "120707.909000", "120709.910000", "120711.910000", "120713.910000", "120715.909000", "120717.909000", "120719.909000", "120721.909000", "120723.909000", "120725.909000", "120727.910000", "120729.910000", "120731.910000", "120733.909000", "120735.909000", "120737.909000", "120739.910000", "120741.909000", "120743.909000", "120745.910000", "120747.910000", "120749.909000", "120751.909000", "120753.909000", "120755.909000", "120757.910000", "120759.909000", "120801.911000", "120803.910000", "120805.910000", "120807.910000", "120809.909000", "120811.909000", "120813.909000", "120815.909000", "120817.909000", "120819.910000", "120821.910000", "120823.911000", "120825.909000", "120827.909000", "120829.909000", "120831.910000", "120833.909000", "120835.909000", "120837.910000", "120839.910000", "120841.909000", "120843.909000", "120845.713000"],
      "InstanceCreationTime": ["120140.916000", "120141.907000", "120141.911000", "120142.907000", "120142.911000", "120143.908000", "120144.908000", "120145.907000", "120147.909000", "120149.909000", "120151.909000", "120153.910000", "120155.910000", "120157.910000", "120159.909000", "120201.909000", "120203.909000", "120205.909000", "120207.909000", "120209.909000", "120211.909000", "120213.910000", "120215.910000", "120217.909000", "120219.909000", "120221.910000", "120223.909000", "120225.909000", "120227.909000", "120229.910000", "120231.910000", "120233.910000", "120235.909000", "120237.910000", "120239.909000", "120241.909000", "120243.909000", "120245.909000", "120247.910000", "120249.911000", "120251.909000", "120253.909000", "120255.909000", "120257.909000", "120259.909000", "120301.909000", "120303.909000", "120305.910000", "120307.910000", "120309.909000", "120311.909000", "120313.909000", "120315.909000", "120317.909000", "120319.909000", "120321.909000", "120323.910000", "120325.910000", "120327.909000", "120329.909000", "120331.910000", "120333.909000", "120335.909000", "120337.909000", "120339.910000", "120341.910000", "120343.910000", "120345.909000", "120347.909000", "120349.909000", "120351.909000", "120353.909000", "120355.907000", "120357.909000", "120359.909000", "120401.907000", "120403.907000", "120405.909000", "120407.909000", "120409.908000", "120412.407000", "120413.907000", "120415.908000", "120417.908000", "120419.907000", "120421.907000", "120423.907000", "120425.907000", "120427.908000", "120429.908000", "120431.908000", "120433.909000", "120435.909000", "120437.908000", "120439.907000", "120441.907000", "120443.907000", "120445.908000", "120447.909000", "120449.910000", "120451.909000", "120453.910000", "120455.909000", "120457.909000", "120459.907000", "120501.910000", "120503.909000", "120505.909000", "120507.910000", "120509.910000", "120511.909000", "120513.909000", "120515.909000", "120517.909000", "120519.909000", "120521.909000", "120523.909000", "120525.910000", "120527.910000", "120529.909000", "120531.909000", "120533.917000", "120535.909000", "120537.909000", "120539.908000", "120541.910000", "120543.910000", "120545.910000", "120547.909000", "120549.909000", "120551.909000", "120553.910000", "120555.909000", "120557.909000", "120559.910000", "120601.910000", "120603.910000", "120605.909000", "120607.909000", "120609.909000", "120611.907000", "120613.909000", "120615.909000", "120617.911000", "120619.909000", "120621.909000", "120623.909000", "120625.909000", "120627.909000", "120629.909000", "120631.909000", "120633.909000", "120635.910000", "120637.910000", "120639.909000", "120641.909000", "120643.909000", "120645.909000", "120647.909000", "120649.909000", "120651.910000", "120653.910000", "120655.910000", "120657.909000", "120659.910000", "120701.909000", "120703.908000", "120705.910000", "120707.909000", "120709.910000", "120711.910000", "120713.910000", "120715.909000", "120717.909000", "120719.909000", "120721.909000", "120723.909000", "120725.909000", "120727.910000", "120729.910000", "120731.910000", "120733.909000", "120735.909000", "120737.909000", "120739.910000", "120741.909000", "120743.909000", "120745.910000", "120747.910000", "120749.909000", "120751.909000", "120753.909000", "120755.909000", "120757.910000", "120759.909000", "120801.911000", "120803.910000", "120805.910000", "120807.910000", "120809.909000", "120811.909000", "120813.909000", "120815.909000", "120817.909000", "120819.910000", "120821.910000", "120823.911000", "120825.909000", "120827.909000", "120829.909000", "120831.910000", "120833.909000", "120835.909000", "120837.910000", "120839.910000", "120841.909000", "120843.909000", "120845.713000"],
      "InstanceNumber": [1, 2, 3, 4, 5, 6, 7, 8, 9, 10, 11, 12, 13, 14, 15, 16, 17, 18, 19, 20, 21, 22, 23, 24, 25, 26, 27, 28, 29, 30, 31, 32, 33, 34, 35, 36, 37, 38, 39, 40, 41, 42, 43, 44, 45, 46, 47, 48, 49, 50, 51, 52, 53, 54, 55, 56, 57, 58, 59, 60, 61, 62, 63, 64, 65, 66, 67, 68, 69, 70, 71, 72, 73, 74, 75, 76, 77, 78, 79, 80, 81, 82, 83, 84, 85, 86, 87, 88, 89, 90, 91, 92, 93, 94, 95, 96, 97, 98, 99, 100, 101, 102, 103, 104, 105, 106, 107, 108, 109, 110, 111, 112, 113, 114, 115, 116, 117, 118, 119, 120, 121, 122, 123, 124, 125, 126, 127, 128, 129, 130, 131, 132, 133, 134, 135, 136, 137, 138, 139, 140, 141, 142, 143, 144, 145, 146, 147, 148, 149, 150, 151, 152, 153, 154, 155, 156, 157, 158, 159, 160, 161, 162, 163, 164, 165, 166, 167, 168, 169, 170, 171, 172, 173, 174, 175, 176, 177, 178, 179, 180, 181, 182, 183, 184, 185, 186, 187, 188, 189, 190, 191, 192, 193, 194, 195, 196, 197, 198, 199, 200, 201, 202, 203, 204, 205, 206, 207, 208, 209, 210, 211, 212, 213, 214, 215, 216, 217, 218],
      "WindowCenter": [18709.0, 18677.0, 18636.0, 18625.0, 18617.0, 18620.0, 18635.0, 18646.0, 18660.0, 18656.0, 18638.0, 18629.0, 18633.0, 18626.0, 18623.0, 18631.0, 18607.0, 18611.0, 18623.0, 18634.0, 18619.0, 18614.0, 18624.0, 18626.0, 18609.0, 18586.0, 18600.0, 18621.0, 18649.0, 18628.0, 18605.0, 18589.0, 18604.0, 18589.0, 18596.0, 18583.0, 18576.0, 18552.0, 18567.0, 18604.0, 18628.0, 18644.0, 18650.0, 18660.0, 18666.0, 18633.0, 18636.0, 18642.0, 18637.0, 18619.0, 18617.0, 18620.0, 18580.0, 18577.0, 18590.0, 18591.0, 18591.0, 18616.0, 18619.0, 18595.0, 18591.0, 18610.0, 18596.0, 18602.0, 18625.0, 18626.0, 18583.0, 18598.0, 18613.0, 18680.0, 18666.0, 18619.0, 18594.0, 18582.0, 18581.0, 18584.0, 18559.0, 18565.0, 18572.0, 18583.0, 18567.0, 18582.0, 18569.0, 18567.0, 18559.0, 18566.0, 18587.0, 18600.0, 18576.0, 18598.0, 18562.0, 18558.0, 18580.0, 18595.0, 18585.0, 18573.0, 18553.0, 18575.0, 18573.0, 18576.0, 18584.0, 18593.0, 18573.0, 18584.0, 18570.0, 18585.0, 18577.0, 18583.0, 18545.0, 18564.0, 18563.0, 18584.0, 18573.0, 18587.0, 18615.0, 18613.0, 18580.0, 18568.0, 18580.0, 18580.0, 18569.0, 18581.0, 18556.0, 18582.0, 18569.0, 18612.0, 18552.0, 18568.0, 18564.0, 18590.0, 18577.0, 18584.0, 18565.0, 18576.0, 18565.0, 18587.0, 18577.0, 18579.0, 18609.0, 18597.0, 18583.0, 18555.0, 18542.0, 18559.0, 18547.0, 18563.0, 18569.0, 18569.0, 18567.0, 18578.0, 18568.0, 18565.0, 18572.0, 18544.0, 18540.0, 18550.0, 18553.0, 18538.0, 18539.0, 18543.0, 18550.0, 18542.0, 18571.0, 18556.0, 18560.0, 18556.0, 18552.0, 18555.0, 18561.0, 18556.0, 18544.0, 18559.0, 18530.0, 18548.0, 18543.0, 18534.0, 18554.0, 18552.0, 18552.0, 18539.0, 18528.0, 18535.0, 18542.0, 18564.0, 18562.0, 18548.0, 18564.0, 18522.0, 18524.0, 18525.0, 18529.0, 18545.0, 18529.0, 18520.0, 18515.0, 18537.0, 18550.0, 18524.0, 18515.0, 18520.0, 18522.0, 18524.0, 18527.0, 18550.0, 18544.0, 18573.0, 18584.0, 18543.0, 18536.0, 18540.0, 18545.0, 18518.0, 18508.0, 18523.0, 18549.0, 18557.0, 18542.0, 18512.0],
      "WindowWidth": [49213.0, 48999.0, 48900.0, 48904.0, 48890.0, 48890.0, 48923.0, 48980.0, 49000.0, 48984.0, 48949.0, 48944.0, 48923.0, 48906.0, 48929.0, 48982.0, 48955.0, 48982.0, 49001.0, 48959.0, 48938.0, 48946.0, 48939.0, 48880.0, 48809.0, 48819.0, 48890.0, 48976.0, 48956.0, 48846.0, 48844.0, 48907.0, 48856.0, 48810.0, 48802.0, 48818.0, 48779.0, 48752.0, 48775.0, 48763.0, 48777.0, 48813.0, 48840.0, 48905.0, 48910.0, 48889.0, 48913.0, 48918.0, 48830.0, 48818.0, 48795.0, 48747.0, 48733.0, 48695.0, 48703.0, 48717.0, 48765.0, 48815.0, 48782.0, 48765.0, 48777.0, 48765.0, 48780.0, 48819.0, 48870.0, 48809.0, 48712.0, 48760.0, 48890.0, 49098.0, 48955.0, 48816.0, 48754.0, 48713.0, 48723.0, 48690.0, 48647.0, 48652.0, 48682.0, 48675.0, 48676.0, 48663.0, 48690.0, 48666.0, 48660.0, 48749.0, 48810.0, 48782.0, 48780.0, 48796.0, 48689.0, 48674.0, 48688.0, 48779.0, 48700.0, 48646.0, 48656.0, 48693.0, 48669.0, 48694.0, 48748.0, 48705.0, 48656.0, 48665.0, 48742.0, 48760.0, 48731.0, 48675.0, 48627.0, 48602.0, 48663.0, 48641.0, 48635.0, 48727.0, 48757.0, 48720.0, 48673.0, 48667.0, 48745.0, 48722.0, 48667.0, 48615.0, 48611.0, 48603.0, 48656.0, 48706.0, 48621.0, 48603.0, 48604.0, 48643.0, 48647.0, 48615.0, 48628.0, 48647.0, 48664.0, 48631.0, 48614.0, 48674.0, 48729.0, 48697.0, 48617.0, 48611.0, 48637.0, 48623.0, 48591.0, 48554.0, 48619.0, 48645.0, 48617.0, 48647.0, 48701.0, 48723.0, 48643.0, 48578.0, 48576.0, 48607.0, 48606.0, 48560.0, 48524.0, 48517.0, 48534.0, 48600.0, 48583.0, 48549.0, 48562.0, 48574.0, 48583.0, 48571.0, 48552.0, 48549.0, 48578.0, 48588.0, 48605.0, 48567.0, 48518.0, 48512.0, 48596.0, 48655.0, 48595.0, 48549.0, 48542.0, 48549.0, 48601.0, 48626.0, 48626.0, 48581.0, 48626.0, 48575.0, 48493.0, 48517.0, 48554.0, 48540.0, 48519.0, 48490.0, 48535.0, 48549.0, 48568.0, 48516.0, 48461.0, 48440.0, 48442.0, 48492.0, 48579.0, 48592.0, 48612.0, 48630.0, 48661.0, 48634.0, 48609.0, 48608.0, 48527.0, 48499.0, 48482.0, 48540.0, 48604.0, 48595.0, 48527.0, 48508.0]
    },
    "slices": {}
  }
}