{
  "AcquisitionMatrixPE": 116,
  "AcquisitionNumber": 1,
  "AcquisitionTime": "12:09:47.860000",
  "BandwidthPerPixelPhaseEncode": 18.539,
  "BaseResolution": 116,
  "BodyPartExamined": "HEAD",
  "ConsistencyInfo": "N4_VD13D_LATEST_20130810",
  "ConversionSoftware": "dcm2niix",
  "ConversionSoftwareVersion": "v1.0.20190410  (JP2:OpenJPEG) (JP-LS:CharLS) GCC5.5.0",
  "DerivedVendorReportedEchoSpacing": 0.000930006,
  "DeviceSerialNumber": "66014",
  "DwellTime": 3e-06,
  "EchoTime": 0.03,
  "EchoTrainLength": 50,
  "EffectiveEchoSpacing": 0.000465003,
  "FlipAngle": 81,
  "ImageComments": "Unaliased_MB3_PE4",
  "ImageOrientationPatientDICOM": [0.9999, -0.0135512, 0.00400989, 0.0139621, 0.991147, -0.132033],
  "ImageType": [
    "ORIGINAL",
    "PRIMARY",
    "M",
    "MB",
    "ND",
    "MOSAIC"
],
  "ImagingFrequency": 123.261,
  "InPlanePhaseEncodingDirectionDICOM": "COL",
  "InstitutionAddress": "Yiheyuan_Road_5_Beijing_Haidian_CN_100871",
  "InstitutionName": "Peking_University",
  "InstitutionalDepartmentName": "Department",
  "MRAcquisitionType": "2D",
  "MagneticFieldStrength": 3,
  "Manufacturer": "Siemens",
  "ManufacturersModelName": "Prisma",
  "Modality": "MR",
  "MultibandAccelerationFactor": 3,
  "ParallelReductionFactorInPlane": 2,
  "PartialFourier": 0.875,
  "PatientPosition": "HFS",
  "PercentPhaseFOV": 100,
  "PhaseEncodingDirection": "j-",
  "PhaseEncodingSteps": 101,
  "PhaseResolution": 1,
  "PixelBandwidth": 1435,
  "ProcedureStepDescription": "Research_Projects_64CH",
  "ProtocolName": "mbep2d_bold_MB3_learn2",
  "PulseSequenceDetails": "%CustomerSeq%_cmrr_mbep2d_bold",
  "ReceiveCoilActiveElements": "HC1-6",
  "ReceiveCoilName": "HeadNeck_64",
  "ReconMatrixPE": 116,
  "RefLinesPE": 44,
  "RepetitionTime": 2,
  "SAR": 0.0641984,
  "ScanOptions": "PFP_FS",
  "ScanningSequence": "EP",
  "SequenceName": "epfid2d1_116",
  "SequenceVariant": "SK_SS",
  "SeriesDescription": "mbep2d_bold_MB3_learn2",
  "SeriesNumber": 7,
  "ShimSetting": [-3444, -2095, -1949, 391, -12, -413, -37, 20],
  "SliceThickness": 1.9,
  "SliceTiming": [0, 0.9075, 1.815, 0.7425, 1.65, 0.5775, 1.485, 0.4125, 1.32, 0.2475, 1.155, 0.0825, 0.99, 1.8975, 0.825, 1.7325, 0.66, 1.5675, 0.495, 1.4025, 0.33, 1.2375, 0.165, 1.0725, 0, 0.9075, 1.815, 0.7425, 1.65, 0.5775, 1.485, 0.4125, 1.32, 0.2475, 1.155, 0.0825, 0.99, 1.8975, 0.825, 1.7325, 0.66, 1.5675, 0.495, 1.4025, 0.33, 1.2375, 0.165, 1.0725, 0, 0.9075, 1.815, 0.7425, 1.65, 0.5775, 1.485, 0.4125, 1.32, 0.2475, 1.155, 0.0825, 0.99, 1.8975, 0.825, 1.7325, 0.66, 1.5675, 0.495, 1.4025, 0.33, 1.2375, 0.165, 1.0725],
  "SoftwareVersions": "syngo_MR_D13D",
  "SpacingBetweenSlices": 1.9,
  "StationName": "AWP66014",
  "TaskName": "updating",
  "TotalReadoutTime": 0.0534753,
  "TxRefAmp": 229.312,
  "WipMemBlock": "fe96ee9d-9a7d-4a81-88b3-e80fc4b6677a||Sequence: vd13d/master r/0735857; Nov 19 2014 09:21:40 by eja",
  "dcmmeta_affine": [
    [-1.8963623046875, 0.026479868218302727, 0.004151834640651941, 108.09095764160156],
    [0.02570064552128315, 1.8797614574432373, -0.25094446539878845, -91.00910949707031],
    [0.007604965474456549, 0.2504078447818756, 1.8833506107330322, -77.28755950927734],
    [0.0, 0.0, 0.0, 1.0]
],
  "dcmmeta_reorient_transform": [
    [0.0, -1.0, 0.0, 115.0],
    [1.0, 0.0, 0.0, 0.0],
    [0.0, 0.0, 1.0, 0.0],
    [0.0, 0.0, 0.0, 1.0]
],
  "dcmmeta_shape": [116, 116, 72, 218],
  "dcmmeta_slice_dim": 2,
  "dcmmeta_version": 0.6,
  "global": {
    "const": {
      "AcquisitionMatrix": [116, 0, 0, 116],
      "AngioFlag": "N",
      "BitsAllocated": 16,
      "BitsStored": 16,
      "BodyPartExamined": "HEAD",
      "Columns": 1044,
      "EchoNumbers": 1,
      "EchoTime": 30.0,
      "EchoTrainLength": 50,
      "FlipAngle": 81.0,
      "HighBit": 15,
      "ImageOrientationPatient": [0.9999001372264, -0.0135512489923, 0.00400989094344, 0.01396211231473, 0.9911469547938, -0.1320332284794],
      "ImagePositionPatient": [-1003.3349204808, -985.44768434339, 64.169877506555],
      "ImageType": [
        "ORIGINAL",
        "PRIMARY",
        "M",
        "MB",
        "ND",
        "MOSAIC"
],
      "ImagedNucleus": "1H",
      "ImagingFrequency": 123.26056,
      "InPlanePhaseEncodingDirection": "COL",
      "LargestImagePixelValue": 65535,
      "MRAcquisitionType": "2D",
      "MagneticFieldStrength": 3.0,
      "Manufacturer": "SIEMENS",
      "ManufacturerModelName": "Prisma",
      "Modality": "MR",
      "NumberOfAverages": 1.0,
      "NumberOfPhaseEncodingSteps": 101,
      "PercentPhaseFieldOfView": 100.0,
      "PercentSampling": 100.0,
      "PerformedProcedureStepStartTime": "114451.863000",
      "PhotometricInterpretation": "MONOCHROME2",
      "PixelBandwidth": 1435.0,
      "PixelRepresentation": 0,
      "PixelSpacing": [1.8965517282486, 1.8965517282486],
      "ProtocolName": "mbep2d_bold_MB3_learn2",
      "RepetitionTime": 2000.0,
      "Rows": 1044,
      "SAR": 0.06419842061781,
      "SamplesPerPixel": 1,
      "ScanOptions": [
        "PFP",
        "FS"
],
      "ScanningSequence": "EP",
      "SequenceName": "epfid2d1_116",
      "SequenceVariant": [
        "SK",
        "SS"
],
      "SeriesDescription": "mbep2d_bold_MB3_learn2",
      "SeriesNumber": 7,
      "SeriesTime": "120959.232000",
      "SliceLocation": -64.353985882947,
      "SliceThickness": 1.8999999761581,
      "SmallestImagePixelValue": 0,
      "SoftwareVersions": "syngo MR D13D",
      "SpacingBetweenSlices": 1.899999999033,
      "SpecificCharacterSet": "ISO_IR 100",
      "StudyID": "1",
      "StudyTime": "114451.782000",
      "TimeOfLastCalibration": ["123723.000000", "123723.000000"],
      "TransmitCoilName": "Body",
      "VariableFlipAngleFlag": "N",
      "WindowCenterWidthExplanation": "Algo1",
      "dBdt": 0.0},
    "slices": {}
  },
  "time": {
    "samples": {
      "AcquisitionNumber": [1, 2, 3, 4, 5, 6, 7, 8, 9, 10, 11, 12, 13, 14, 15, 16, 17, 18, 19, 20, 21, 22, 23, 24, 25, 26, 27, 28, 29, 30, 31, 32, 33, 34, 35, 36, 37, 38, 39, 40, 41, 42, 43, 44, 45, 46, 47, 48, 49, 50, 51, 52, 53, 54, 55, 56, 57, 58, 59, 60, 61, 62, 63, 64, 65, 66, 67, 68, 69, 70, 71, 72, 73, 74, 75, 76, 77, 78, 79, 80, 81, 82, 83, 84, 85, 86, 87, 88, 89, 90, 91, 92, 93, 94, 95, 96, 97, 98, 99, 100, 101, 102, 103, 104, 105, 106, 107, 108, 109, 110, 111, 112, 113, 114, 115, 116, 117, 118, 119, 120, 121, 122, 123, 124, 125, 126, 127, 128, 129, 130, 131, 132, 133, 134, 135, 136, 137, 138, 139, 140, 141, 142, 143, 144, 145, 146, 147, 148, 149, 150, 151, 152, 153, 154, 155, 156, 157, 158, 159, 160, 161, 162, 163, 164, 165, 166, 167, 168, 169, 170, 171, 172, 173, 174, 175, 176, 177, 178, 179, 180, 181, 182, 183, 184, 185, 186, 187, 188, 189, 190, 191, 192, 193, 194, 195, 196, 197, 198, 199, 200, 201, 202, 203, 204, 205, 206, 207, 208, 209, 210, 211, 212, 213, 214, 215, 216, 217, 218],
      "AcquisitionTime": ["120947.860000", "120949.860000", "120951.860000", "120953.860000", "120955.860000", "120957.860000", "120959.860000", "121001.860000", "121003.860000", "121005.860000", "121007.860000", "121009.860000", "121011.860000", "121013.860000", "121015.860000", "121017.860000", "121019.860000", "121021.860000", "121023.860000", "121025.860000", "121027.860000", "121029.860000", "121031.860000", "121033.860000", "121035.860000", "121037.860000", "121039.860000", "121041.860000", "121043.860000", "121045.860000", "121047.860000", "121049.860000", "121051.860000", "121053.860000", "121055.860000", "121057.860000", "121059.860000", "121101.860000", "121103.860000", "121105.860000", "121107.860000", "121109.860000", "121111.860000", "121113.860000", "121115.860000", "121117.860000", "121119.860000", "121121.860000", "121123.860000", "121125.860000", "121127.860000", "121129.860000", "121131.860000", "121133.860000", "121135.860000", "121137.860000", "121139.860000", "121141.860000", "121143.860000", "121145.860000", "121147.860000", "121149.860000", "121151.860000", "121153.860000", "121155.860000", "121157.860000", "121159.860000", "121201.860000", "121203.860000", "121205.860000", "121207.860000", "121209.860000", "121211.860000", "121213.860000", "121215.860000", "121217.860000", "121219.860000", "121221.860000", "121223.860000", "121225.860000", "121227.860000", "121229.860000", "121231.860000", "121233.860000", "121235.860000", "121237.860000", "121239.860000", "121241.860000", "121243.860000", "121245.860000", "121247.860000", "121249.860000", "121251.860000", "121253.860000", "121255.860000", "121257.860000", "121259.860000", "121301.862500", "121303.862500", "121305.862500", "121307.862500", "121309.862500", "121311.862500", "121313.862500", "121315.862500", "121317.862500", "121319.862500", "121321.862500", "121323.862500", "121325.862500", "121327.862500", "121329.862500", "121331.862500", "121333.862500", "121335.862500", "121337.862500", "121339.862500", "121341.862500", "121343.862500", "121345.862500", "121347.862500", "121349.862500", "121351.862500", "121353.862500", "121355.862500", "121357.862500", "121359.862500", "121401.862500", "121403.862500", "121405.862500", "121407.862500", "121409.862500", "121411.862500", "121413.862500", "121415.862500", "121417.862500", "121419.862500", "121421.862500", "121423.862500", "121425.862500", "121427.862500", "121429.862500", "121431.862500", "121433.862500", "121435.862500", "121437.862500", "121439.862500", "121441.862500", "121443.862500", "121445.862500", "121447.862500", "121449.862500", "121451.862500", "121453.862500", "121455.862500", "121457.862500", "121459.862500", "121501.862500", "121503.862500", "121505.862500", "121507.862500", "121509.862500", "121511.862500", "121513.862500", "121515.862500", "121517.862500", "121519.862500", "121521.862500", "121523.862500", "121525.862500", "121527.862500", "121529.862500", "121531.862500", "121533.862500", "121535.862500", "121537.862500", "121539.862500", "121541.862500", "121543.862500", "121545.862500", "121547.862500", "121549.862500", "121551.862500", "121553.862500", "121555.862500", "121557.862500", "121559.862500", "121601.862500", "121603.862500", "121605.862500", "121607.862500", "121609.862500", "121611.862500", "121613.862500", "121615.862500", "121617.862500", "121619.862500", "121621.862500", "121623.862500", "121625.862500", "121627.862500", "121629.862500", "121631.862500", "121633.862500", "121635.862500", "121637.862500", "121639.862500", "121641.862500", "121643.862500", "121645.862500", "121647.862500", "121649.862500", "121651.862500", "121653.862500", "121655.862500", "121657.862500", "121659.862500", "121701.862500"],
      "ContentTime": ["120959.238000", "121000.230000", "121000.234000", "121001.231000", "121001.236000", "121002.730000", "121002.735000", "121004.231000", "121006.231000", "121008.231000", "121010.231000", "121012.231000", "121014.231000", "121016.231000", "121018.231000", "121020.230000", "121022.232000", "121024.231000", "121026.231000", "121028.231000", "121030.231000", "121032.231000", "121034.231000", "121036.231000", "121038.230000", "121040.231000", "121042.232000", "121044.231000", "121046.231000", "121048.231000", "121050.231000", "121052.231000", "121054.230000", "121056.230000", "121058.231000", "121100.230000", "121102.231000", "121104.232000", "121106.231000", "121108.231000", "121110.231000", "121112.230000", "121114.231000", "121116.231000", "121118.231000", "121120.231000", "121122.231000", "121124.231000", "121126.231000", "121128.231000", "121130.230000", "121132.231000", "121134.231000", "121136.231000", "121138.231000", "121140.231000", "121142.231000", "121144.231000", "121146.231000", "121148.230000", "121150.231000", "121152.231000", "121154.231000", "121156.230000", "121158.231000", "121200.231000", "121202.242000", "121204.230000", "121206.229000", "121208.231000", "121210.231000", "121212.232000", "121214.231000", "121216.230000", "121218.231000", "121220.231000", "121222.230000", "121224.231000", "121226.231000", "121228.231000", "121230.231000", "121232.231000", "121234.231000", "121236.231000", "121238.231000", "121240.229000", "121242.231000", "121244.231000", "121246.232000", "121248.231000", "121250.231000", "121252.231000", "121254.231000", "121256.231000", "121258.230000", "121300.231000", "121302.230000", "121304.231000", "121306.231000", "121308.231000", "121310.231000", "121312.231000", "121314.230000", "121316.231000", "121318.231000", "121320.231000", "121322.231000", "121324.231000", "121326.230000", "121328.231000", "121330.231000", "121332.230000", "121334.231000", "121336.231000", "121338.231000", "121340.231000", "121342.231000", "121344.231000", "121346.230000", "121348.231000", "121350.230000", "121352.231000", "121354.229000", "121356.231000", "121358.231000", "121400.231000", "121402.231000", "121404.231000", "121406.231000", "121408.230000", "121410.231000", "121412.231000", "121414.231000", "121416.231000", "121418.231000", "121420.229000", "121422.231000", "121424.230000", "121426.231000", "121428.232000", "121430.230000", "121432.231000", "121434.231000", "121436.231000", "121438.231000", "121440.231000", "121442.229000", "121444.231000", "121446.231000", "121448.231000", "121450.231000", "121452.231000", "121454.231000", "121456.231000", "121458.231000", "121500.230000", "121502.231000", "121504.231000", "121506.231000", "121508.231000", "121510.230000", "121512.230000", "121514.231000", "121516.232000", "121518.230000", "121520.231000", "121522.231000", "121524.231000", "121526.231000", "121528.231000", "121530.231000", "121532.231000", "121534.230000", "121536.230000", "121538.231000", "121540.231000", "121542.231000", "121544.231000", "121546.231000", "121548.231000", "121550.232000", "121552.230000", "121554.231000", "121556.231000", "121558.231000", "121600.231000", "121602.231000", "121604.230000", "121606.231000", "121608.231000", "121610.230000", "121612.231000", "121614.231000", "121616.231000", "121618.231000", "121620.231000", "121622.231000", "121624.231000", "121626.231000", "121628.230000", "121630.232000", "121632.231000", "121634.231000", "121636.231000", "121638.231000", "121640.231000", "121642.231000", "121644.230000", "121646.230000", "121648.231000", "121650.231000", "121652.232000", "121654.231000", "121656.231000", "121658.231000", "121700.231000", "121702.228000", "121703.942000"],
      "InstanceCreationTime": ["120959.238000", "121000.230000", "121000.234000", "121001.231000", "121001.236000", "121002.730000", "121002.735000", "121004.231000", "121006.231000", "121008.231000", "121010.231000", "121012.231000", "121014.231000", "121016.231000", "121018.231000", "121020.230000", "121022.232000", "121024.231000", "121026.231000", "121028.231000", "121030.231000", "121032.231000", "121034.231000", "121036.231000", "121038.230000", "121040.231000", "121042.232000", "121044.231000", "121046.231000", "121048.231000", "121050.231000", "121052.231000", "121054.230000", "121056.230000", "121058.231000", "121100.230000", "121102.231000", "121104.232000", "121106.231000", "121108.231000", "121110.231000", "121112.230000", "121114.231000", "121116.231000", "121118.231000", "121120.231000", "121122.231000", "121124.231000", "121126.231000", "121128.231000", "121130.230000", "121132.231000", "121134.231000", "121136.231000", "121138.231000", "121140.231000", "121142.231000", "121144.231000", "121146.231000", "121148.230000", "121150.231000", "121152.231000", "121154.231000", "121156.230000", "121158.231000", "121200.231000", "121202.242000", "121204.230000", "121206.229000", "121208.231000", "121210.231000", "121212.232000", "121214.231000", "121216.230000", "121218.231000", "121220.231000", "121222.230000", "121224.231000", "121226.231000", "121228.231000", "121230.231000", "121232.231000", "121234.231000", "121236.231000", "121238.231000", "121240.229000", "121242.231000", "121244.231000", "121246.232000", "121248.231000", "121250.231000", "121252.231000", "121254.231000", "121256.231000", "121258.230000", "121300.231000", "121302.230000", "121304.231000", "121306.231000", "121308.231000", "121310.231000", "121312.231000", "121314.230000", "121316.231000", "121318.231000", "121320.231000", "121322.231000", "121324.231000", "121326.230000", "121328.231000", "121330.231000", "121332.230000", "121334.231000", "121336.231000", "121338.231000", "121340.231000", "121342.231000", "121344.231000", "121346.230000", "121348.231000", "121350.230000", "121352.231000", "121354.229000", "121356.231000", "121358.231000", "121400.231000", "121402.231000", "121404.231000", "121406.231000", "121408.230000", "121410.231000", "121412.231000", "121414.231000", "121416.231000", "121418.231000", "121420.229000", "121422.231000", "121424.230000", "121426.231000", "121428.232000", "121430.230000", "121432.231000", "121434.231000", "121436.231000", "121438.231000", "121440.231000", "121442.229000", "121444.231000", "121446.231000", "121448.231000", "121450.231000", "121452.231000", "121454.231000", "121456.231000", "121458.231000", "121500.230000", "121502.231000", "121504.231000", "121506.231000", "121508.231000", "121510.230000", "121512.230000", "121514.231000", "121516.232000", "121518.230000", "121520.231000", "121522.231000", "121524.231000", "121526.231000", "121528.231000", "121530.231000", "121532.231000", "121534.230000", "121536.230000", "121538.231000", "121540.231000", "121542.231000", "121544.231000", "121546.231000", "121548.231000", "121550.232000", "121552.230000", "121554.231000", "121556.231000", "121558.231000", "121600.231000", "121602.231000", "121604.230000", "121606.231000", "121608.231000", "121610.230000", "121612.231000", "121614.231000", "121616.231000", "121618.231000", "121620.231000", "121622.231000", "121624.231000", "121626.231000", "121628.230000", "121630.232000", "121632.231000", "121634.231000", "121636.231000", "121638.231000", "121640.231000", "121642.231000", "121644.230000", "121646.230000", "121648.231000", "121650.231000", "121652.232000", "121654.231000", "121656.231000", "121658.231000", "121700.231000", "121702.228000", "121703.942000"],
      "InstanceNumber": [1, 2, 3, 4, 5, 6, 7, 8, 9, 10, 11, 12, 13, 14, 15, 16, 17, 18, 19, 20, 21, 22, 23, 24, 25, 26, 27, 28, 29, 30, 31, 32, 33, 34, 35, 36, 37, 38, 39, 40, 41, 42, 43, 44, 45, 46, 47, 48, 49, 50, 51, 52, 53, 54, 55, 56, 57, 58, 59, 60, 61, 62, 63, 64, 65, 66, 67, 68, 69, 70, 71, 72, 73, 74, 75, 76, 77, 78, 79, 80, 81, 82, 83, 84, 85, 86, 87, 88, 89, 90, 91, 92, 93, 94, 95, 96, 97, 98, 99, 100, 101, 102, 103, 104, 105, 106, 107, 108, 109, 110, 111, 112, 113, 114, 115, 116, 117, 118, 119, 120, 121, 122, 123, 124, 125, 126, 127, 128, 129, 130, 131, 132, 133, 134, 135, 136, 137, 138, 139, 140, 141, 142, 143, 144, 145, 146, 147, 148, 149, 150, 151, 152, 153, 154, 155, 156, 157, 158, 159, 160, 161, 162, 163, 164, 165, 166, 167, 168, 169, 170, 171, 172, 173, 174, 175, 176, 177, 178, 179, 180, 181, 182, 183, 184, 185, 186, 187, 188, 189, 190, 191, 192, 193, 194, 195, 196, 197, 198, 199, 200, 201, 202, 203, 204, 205, 206, 207, 208, 209, 210, 211, 212, 213, 214, 215, 216, 217, 218],
      "WindowCenter": [18687.0, 18623.0, 18613.0, 18633.0, 18631.0, 18610.0, 18614.0, 18594.0, 18568.0, 18574.0, 18584.0, 18586.0, 18583.0, 18592.0, 18565.0, 18531.0, 18539.0, 18544.0, 18567.0, 18550.0, 18544.0, 18563.0, 18567.0, 18590.0, 18592.0, 18584.0, 18591.0, 18587.0, 18577.0, 18569.0, 18583.0, 18618.0, 18597.0, 18589.0, 18592.0, 18574.0, 18565.0, 18581.0, 18594.0, 18586.0, 18584.0, 18561.0, 18569.0, 18578.0, 18610.0, 18599.0, 18587.0, 18582.0, 18597.0, 18577.0, 18573.0, 18570.0, 18576.0, 18596.0, 18603.0, 18614.0, 18615.0, 18620.0, 18599.0, 18605.0, 18643.0, 18604.0, 18592.0, 18582.0, 18567.0, 18594.0, 18596.0, 18595.0, 18591.0, 18602.0, 18595.0, 18580.0, 18593.0, 18612.0, 18614.0, 18612.0, 18593.0, 18572.0, 18573.0, 18619.0, 18641.0, 18634.0, 18649.0, 18599.0, 18580.0, 18588.0, 18625.0, 18625.0, 18597.0, 18583.0, 18571.0, 18585.0, 18593.0, 18549.0, 18545.0, 18567.0, 18583.0, 18607.0, 18588.0, 18558.0, 18529.0, 18549.0, 18543.0, 18560.0, 18568.0, 18585.0, 18570.0, 18599.0, 18581.0, 18549.0, 18553.0, 18585.0, 18595.0, 18595.0, 18583.0, 18579.0, 18589.0, 18598.0, 18602.0, 18594.0, 18582.0, 18588.0, 18598.0, 18591.0, 18594.0, 18581.0, 18572.0, 18583.0, 18616.0, 18605.0, 18621.0, 18611.0, 18601.0, 18587.0, 18572.0, 18566.0, 18563.0, 18575.0, 18574.0, 18574.0, 18622.0, 18626.0, 18617.0, 18591.0, 18571.0, 18570.0, 18600.0, 18609.0, 18593.0, 18590.0, 18584.0, 18596.0, 18587.0, 18591.0, 18603.0, 18609.0, 18618.0, 18588.0, 18581.0, 18562.0, 18592.0, 18595.0, 18586.0, 18578.0, 18585.0, 18593.0, 18607.0, 18589.0, 18600.0, 18577.0, 18572.0, 18566.0, 18592.0, 18596.0, 18583.0, 18573.0, 18581.0, 18576.0, 18586.0, 18564.0, 18571.0, 18585.0, 18616.0, 18612.0, 18611.0, 18601.0, 18609.0, 18579.0, 18569.0, 18580.0, 18591.0, 18614.0, 18658.0, 18636.0, 18633.0, 18607.0, 18577.0, 18584.0, 18602.0, 18590.0, 18598.0, 18623.0, 18618.0, 18620.0, 18609.0, 18610.0, 18597.0, 18618.0, 18612.0, 18610.0, 18634.0, 18620.0, 18640.0, 18631.0, 18621.0, 18629.0, 18609.0, 18597.0],
      "WindowWidth": [48932.0, 48769.0, 48800.0, 48898.0, 48919.0, 48834.0, 48764.0, 48715.0, 48688.0, 48655.0, 48651.0, 48723.0, 48733.0, 48691.0, 48565.0, 48510.0, 48525.0, 48576.0, 48543.0, 48567.0, 48564.0, 48637.0, 48747.0, 48724.0, 48714.0, 48735.0, 48738.0, 48761.0, 48728.0, 48687.0, 48723.0, 48768.0, 48779.0, 48786.0, 48740.0, 48658.0, 48664.0, 48674.0, 48715.0, 48734.0, 48662.0, 48648.0, 48641.0, 48673.0, 48705.0, 48707.0, 48674.0, 48685.0, 48659.0, 48658.0, 48630.0, 48617.0, 48668.0, 48693.0, 48747.0, 48752.0, 48755.0, 48745.0, 48758.0, 48775.0, 48867.0, 48744.0, 48655.0, 48648.0, 48676.0, 48704.0, 48728.0, 48692.0, 48713.0, 48709.0, 48683.0, 48695.0, 48728.0, 48714.0, 48716.0, 48691.0, 48642.0, 48630.0, 48680.0, 48709.0, 48734.0, 48765.0, 48752.0, 48695.0, 48636.0, 48689.0, 48783.0, 48749.0, 48646.0, 48591.0, 48620.0, 48675.0, 48688.0, 48625.0, 48588.0, 48639.0, 48735.0, 48710.0, 48648.0, 48571.0, 48518.0, 48520.0, 48528.0, 48550.0, 48567.0, 48614.0, 48656.0, 48730.0, 48597.0, 48517.0, 48557.0, 48662.0, 48727.0, 48705.0, 48686.0, 48647.0, 48702.0, 48768.0, 48686.0, 48656.0, 48676.0, 48667.0, 48706.0, 48703.0, 48667.0, 48647.0, 48629.0, 48710.0, 48743.0, 48749.0, 48722.0, 48741.0, 48711.0, 48687.0, 48619.0, 48567.0, 48576.0, 48596.0, 48611.0, 48585.0, 48725.0, 48809.0, 48718.0, 48605.0, 48558.0, 48605.0, 48673.0, 48704.0, 48705.0, 48666.0, 48639.0, 48646.0, 48653.0, 48643.0, 48639.0, 48691.0, 48659.0, 48604.0, 48552.0, 48578.0, 48656.0, 48706.0, 48651.0, 48634.0, 48639.0, 48658.0, 48665.0, 48701.0, 48649.0, 48585.0, 48595.0, 48630.0, 48680.0, 48672.0, 48626.0, 48608.0, 48588.0, 48608.0, 48604.0, 48591.0, 48640.0, 48663.0, 48779.0, 48763.0, 48703.0, 48672.0, 48629.0, 48575.0, 48568.0, 48574.0, 48573.0, 48599.0, 48702.0, 48662.0, 48718.0, 48532.0, 48465.0, 48507.0, 48565.0, 48592.0, 48634.0, 48662.0, 48683.0, 48684.0, 48653.0, 48665.0, 48683.0, 48683.0, 48705.0, 48715.0, 48719.0, 48748.0, 48688.0, 48681.0, 48700.0, 48670.0, 48631.0, 48613.0]
    },
    "slices": {}
  }
}