{
  "AcquisitionMatrixPE": 116,
  "AcquisitionNumber": 1,
  "AcquisitionTime": "12:17:57.597500",
  "BandwidthPerPixelPhaseEncode": 18.539,
  "BaseResolution": 116,
  "BodyPartExamined": "HEAD",
  "ConsistencyInfo": "N4_VD13D_LATEST_20130810",
  "ConversionSoftware": "dcm2niix",
  "ConversionSoftwareVersion": "v1.0.20190410  (JP2:OpenJPEG) (JP-LS:CharLS) GCC5.5.0",
  "DerivedVendorReportedEchoSpacing": 0.000930006,
  "DeviceSerialNumber": "66014",
  "DwellTime": 3e-06,
  "EchoTime": 0.03,
  "EchoTrainLength": 50,
  "EffectiveEchoSpacing": 0.000465003,
  "FlipAngle": 81,
  "ImageComments": "Unaliased_MB3_PE4",
  "ImageOrientationPatientDICOM": [0.9999, -0.0135512, 0.00400989, 0.0139621, 0.991147, -0.132033],
  "ImageType": [
    "ORIGINAL",
    "PRIMARY",
    "M",
    "MB",
    "ND",
    "MOSAIC"
],
  "ImagingFrequency": 123.261,
  "InPlanePhaseEncodingDirectionDICOM": "COL",
  "InstitutionAddress": "Yiheyuan_Road_5_Beijing_Haidian_CN_100871",
  "InstitutionName": "Peking_University",
  "InstitutionalDepartmentName": "Department",
  "MRAcquisitionType": "2D",
  "MagneticFieldStrength": 3,
  "Manufacturer": "Siemens",
  "ManufacturersModelName": "Prisma",
  "Modality": "MR",
  "MultibandAccelerationFactor": 3,
  "ParallelReductionFactorInPlane": 2,
  "PartialFourier": 0.875,
  "PatientPosition": "HFS",
  "PercentPhaseFOV": 100,
  "PhaseEncodingDirection": "j-",
  "PhaseEncodingSteps": 101,
  "PhaseResolution": 1,
  "PixelBandwidth": 1435,
  "ProcedureStepDescription": "Research_Projects_64CH",
  "ProtocolName": "mbep2d_bold_MB3_learn3",
  "PulseSequenceDetails": "%CustomerSeq%_cmrr_mbep2d_bold",
  "ReceiveCoilActiveElements": "HC1-6",
  "ReceiveCoilName": "HeadNeck_64",
  "ReconMatrixPE": 116,
  "RefLinesPE": 44,
  "RepetitionTime": 2,
  "SAR": 0.0641984,
  "ScanOptions": "PFP_FS",
  "ScanningSequence": "EP",
  "SequenceName": "epfid2d1_116",
  "SequenceVariant": "SK_SS",
  "SeriesDescription": "mbep2d_bold_MB3_learn3",
  "SeriesNumber": 8,
  "ShimSetting": [-3444, -2095, -1949, 391, -12, -413, -37, 20],
  "SliceThickness": 1.9,
  "SliceTiming": [0, 0.9075, 1.815, 0.7425, 1.65, 0.5775, 1.485, 0.4125, 1.32, 0.2475, 1.155, 0.0825, 0.99, 1.8975, 0.825, 1.7325, 0.66, 1.5675, 0.495, 1.4025, 0.33, 1.2375, 0.165, 1.0725, 0, 0.9075, 1.815, 0.7425, 1.65, 0.5775, 1.485, 0.4125, 1.32, 0.2475, 1.155, 0.0825, 0.99, 1.8975, 0.825, 1.7325, 0.66, 1.5675, 0.495, 1.4025, 0.33, 1.2375, 0.165, 1.0725, 0, 0.9075, 1.815, 0.7425, 1.65, 0.5775, 1.485, 0.4125, 1.32, 0.2475, 1.155, 0.0825, 0.99, 1.8975, 0.825, 1.7325, 0.66, 1.5675, 0.495, 1.4025, 0.33, 1.2375, 0.165, 1.0725],
  "SoftwareVersions": "syngo_MR_D13D",
  "SpacingBetweenSlices": 1.9,
  "StationName": "AWP66014",
  "TaskName": "updating",
  "TotalReadoutTime": 0.0534753,
  "TxRefAmp": 229.312,
  "WipMemBlock": "d308f381-2407-4884-a801-40ab3ad7911d||Sequence: vd13d/master r/0735857; Nov 19 2014 09:21:40 by eja",
  "dcmmeta_affine": [
    [-1.8963623046875, 0.026479868218302727, 0.004151834640651941, 108.09095764160156],
    [0.02570064552128315, 1.8797614574432373, -0.25094446539878845, -91.00910949707031],
    [0.007604965474456549, 0.2504078447818756, 1.8833506107330322, -77.28755950927734],
    [0.0, 0.0, 0.0, 1.0]
],
  "dcmmeta_reorient_transform": [
    [0.0, -1.0, 0.0, 115.0],
    [1.0, 0.0, 0.0, 0.0],
    [0.0, 0.0, 1.0, 0.0],
    [0.0, 0.0, 0.0, 1.0]
],
  "dcmmeta_shape": [116, 116, 72, 218],
  "dcmmeta_slice_dim": 2,
  "dcmmeta_version": 0.6,
  "global": {
    "const": {
      "AcquisitionMatrix": [116, 0, 0, 116],
      "AngioFlag": "N",
      "BitsAllocated": 16,
      "BitsStored": 16,
      "BodyPartExamined": "HEAD",
      "Columns": 1044,
      "EchoNumbers": 1,
      "EchoTime": 30.0,
      "EchoTrainLength": 50,
      "FlipAngle": 81.0,
      "HighBit": 15,
      "ImageOrientationPatient": [0.9999001372264, -0.0135512489923, 0.00400989094344, 0.01396211231473, 0.9911469547938, -0.1320332284794],
      "ImagePositionPatient": [-1003.3349204808, -985.44768434339, 64.169877506555],
      "ImageType": [
        "ORIGINAL",
        "PRIMARY",
        "M",
        "MB",
        "ND",
        "MOSAIC"
],
      "ImagedNucleus": "1H",
      "ImagingFrequency": 123.260561,
      "InPlanePhaseEncodingDirection": "COL",
      "LargestImagePixelValue": 65535,
      "MRAcquisitionType": "2D",
      "MagneticFieldStrength": 3.0,
      "Manufacturer": "SIEMENS",
      "ManufacturerModelName": "Prisma",
      "Modality": "MR",
      "NumberOfAverages": 1.0,
      "NumberOfPhaseEncodingSteps": 101,
      "PercentPhaseFieldOfView": 100.0,
      "PercentSampling": 100.0,
      "PerformedProcedureStepStartTime": "114451.863000",
      "PhotometricInterpretation": "MONOCHROME2",
      "PixelBandwidth": 1435.0,
      "PixelRepresentation": 0,
      "PixelSpacing": [1.8965517282486, 1.8965517282486],
      "ProtocolName": "mbep2d_bold_MB3_learn3",
      "RepetitionTime": 2000.0,
      "Rows": 1044,
      "SAR": 0.06419842061781,
      "SamplesPerPixel": 1,
      "ScanOptions": [
        "PFP",
        "FS"
],
      "ScanningSequence": "EP",
      "SequenceName": "epfid2d1_116",
      "SequenceVariant": [
        "SK",
        "SS"
],
      "SeriesDescription": "mbep2d_bold_MB3_learn3",
      "SeriesNumber": 8,
      "SeriesTime": "121809.969000",
      "SliceLocation": -64.353985882947,
      "SliceThickness": 1.8999999761581,
      "SmallestImagePixelValue": 0,
      "SoftwareVersions": "syngo MR D13D",
      "SpacingBetweenSlices": 1.899999999033,
      "SpecificCharacterSet": "ISO_IR 100",
      "StudyID": "1",
      "StudyTime": "114451.782000",
      "TimeOfLastCalibration": ["123723.000000", "123723.000000"],
      "TransmitCoilName": "Body",
      "VariableFlipAngleFlag": "N",
      "WindowCenterWidthExplanation": "Algo1",
      "dBdt": 0.0},
    "slices": {}
  },
  "time": {
    "samples": {
      "AcquisitionNumber": [1, 2, 3, 4, 5, 6, 7, 8, 9, 10, 11, 12, 13, 14, 15, 16, 17, 18, 19, 20, 21, 22, 23, 24, 25, 26, 27, 28, 29, 30, 31, 32, 33, 34, 35, 36, 37, 38, 39, 40, 41, 42, 43, 44, 45, 46, 47, 48, 49, 50, 51, 52, 53, 54, 55, 56, 57, 58, 59, 60, 61, 62, 63, 64, 65, 66, 67, 68, 69, 70, 71, 72, 73, 74, 75, 76, 77, 78, 79, 80, 81, 82, 83, 84, 85, 86, 87, 88, 89, 90, 91, 92, 93, 94, 95, 96, 97, 98, 99, 100, 101, 102, 103, 104, 105, 106, 107, 108, 109, 110, 111, 112, 113, 114, 115, 116, 117, 118, 119, 120, 121, 122, 123, 124, 125, 126, 127, 128, 129, 130, 131, 132, 133, 134, 135, 136, 137, 138, 139, 140, 141, 142, 143, 144, 145, 146, 147, 148, 149, 150, 151, 152, 153, 154, 155, 156, 157, 158, 159, 160, 161, 162, 163, 164, 165, 166, 167, 168, 169, 170, 171, 172, 173, 174, 175, 176, 177, 178, 179, 180, 181, 182, 183, 184, 185, 186, 187, 188, 189, 190, 191, 192, 193, 194, 195, 196, 197, 198, 199, 200, 201, 202, 203, 204, 205, 206, 207, 208, 209, 210, 211, 212, 213, 214, 215, 216, 217, 218],
      "AcquisitionTime": ["121757.597500", "121759.597500", "121801.597500", "121803.597500", "121805.597500", "121807.597500", "121809.597500", "121811.597500", "121813.597500", "121815.597500", "121817.597500", "121819.597500", "121821.597500", "121823.597500", "121825.597500", "121827.597500", "121829.597500", "121831.597500", "121833.597500", "121835.597500", "121837.597500", "121839.597500", "121841.597500", "121843.597500", "121845.597500", "121847.597500", "121849.597500", "121851.597500", "121853.597500", "121855.597500", "121857.597500", "121859.597500", "121901.597500", "121903.597500", "121905.597500", "121907.597500", "121909.597500", "121911.597500", "121913.597500", "121915.600000", "121917.600000", "121919.600000", "121921.600000", "121923.600000", "121925.600000", "121927.600000", "121929.600000", "121931.600000", "121933.600000", "121935.600000", "121937.600000", "121939.600000", "121941.600000", "121943.600000", "121945.600000", "121947.600000", "121949.600000", "121951.600000", "121953.600000", "121955.600000", "121957.600000", "121959.600000", "122001.600000", "122003.600000", "122005.600000", "122007.600000", "122009.600000", "122011.600000", "122013.600000", "122015.600000", "122017.600000", "122019.600000", "122021.600000", "122023.600000", "122025.600000", "122027.600000", "122029.600000", "122031.600000", "122033.600000", "122035.600000", "122037.600000", "122039.600000", "122041.600000", "122043.600000", "122045.600000", "122047.600000", "122049.600000", "122051.600000", "122053.600000", "122055.600000", "122057.600000", "122059.600000", "122101.600000", "122103.600000", "122105.600000", "122107.600000", "122109.600000", "122111.600000", "122113.600000", "122115.600000", "122117.600000", "122119.600000", "122121.600000", "122123.600000", "122125.600000", "122127.600000", "122129.600000", "122131.600000", "122133.600000", "122135.600000", "122137.600000", "122139.600000", "122141.600000", "122143.600000", "122145.600000", "122147.600000", "122149.600000", "122151.600000", "122153.600000", "122155.600000", "122157.600000", "122159.600000", "122201.600000", "122203.600000", "122205.600000", "122207.600000", "122209.600000", "122211.600000", "122213.600000", "122215.600000", "122217.600000", "122219.600000", "122221.600000", "122223.600000", "122225.600000", "122227.600000", "122229.600000", "122231.600000", "122233.600000", "122235.600000", "122237.600000", "122239.600000", "122241.600000", "122243.600000", "122245.600000", "122247.600000", "122249.600000", "122251.600000", "122253.600000", "122255.600000", "122257.600000", "122259.600000", "122301.600000", "122303.600000", "122305.600000", "122307.600000", "122309.600000", "122311.600000", "122313.600000", "122315.600000", "122317.600000", "122319.600000", "122321.600000", "122323.600000", "122325.600000", "122327.600000", "122329.600000", "122331.600000", "122333.600000", "122335.600000", "122337.600000", "122339.600000", "122341.600000", "122343.600000", "122345.600000", "122347.600000", "122349.600000", "122351.600000", "122353.600000", "122355.600000", "122357.600000", "122359.600000", "122401.600000", "122403.600000", "122405.600000", "122407.600000", "122409.600000", "122411.600000", "122413.600000", "122415.600000", "122417.600000", "122419.600000", "122421.600000", "122423.600000", "122425.600000", "122427.600000", "122429.600000", "122431.600000", "122433.600000", "122435.600000", "122437.600000", "122439.600000", "122441.600000", "122443.600000", "122445.600000", "122447.600000", "122449.600000", "122451.600000", "122453.600000", "122455.600000", "122457.600000", "122459.600000", "122501.600000", "122503.600000", "122505.600000", "122507.600000", "122509.600000", "122511.600000"],
      "ContentTime": ["121809.974000", "121810.967000", "121810.971000", "121811.967000", "121812.967000", "121812.971000", "121813.968000", "121813.972000", "121816.469000", "121818.469000", "121820.468000", "121821.967000", "121823.968000", "121825.968000", "121828.469000", "121829.968000", "121832.469000", "121833.968000", "121835.969000", "121837.968000", "121839.968000", "121841.968000", "121844.468000", "121845.967000", "121848.468000", "121850.469000", "121852.469000", "121853.969000", "121856.468000", "121857.967000", "121900.468000", "121901.968000", "121904.468000", "121905.968000", "121907.969000", "121909.969000", "121911.967000", "121913.968000", "121916.469000", "121917.972000", "121919.969000", "121921.969000", "121923.969000", "121925.969000", "121928.469000", "121929.968000", "121931.968000", "121933.968000", "121936.468000", "121937.966000", "121939.968000", "121941.969000", "121944.468000", "121945.969000", "121948.468000", "121949.967000", "121951.969000", "121953.969000", "121956.468000", "121958.468000", "121959.968000", "122001.968000", "122004.469000", "122005.967000", "122007.968000", "122009.967000", "122012.468000", "122013.967000", "122016.470000", "122017.969000", "122019.969000", "122021.968000", "122024.468000", "122025.967000", "122027.968000", "122029.968000", "122031.968000", "122033.969000", "122035.969000", "122037.969000", "122039.968000", "122041.968000", "122043.968000", "122045.969000", "122047.968000", "122049.968000", "122052.469000", "122053.968000", "122055.969000", "122057.968000", "122059.969000", "122101.968000", "122103.968000", "122105.968000", "122108.468000", "122109.968000", "122111.969000", "122113.969000", "122115.968000", "122117.968000", "122120.468000", "122121.968000", "122123.968000", "122125.968000", "122128.469000", "122130.469000", "122132.468000", "122133.968000", "122135.968000", "122137.968000", "122139.968000", "122141.968000", "122143.969000", "122145.969000", "122147.969000", "122149.968000", "122152.468000", "122153.968000", "122155.968000", "122157.968000", "122159.968000", "122201.969000", "122204.469000", "122205.970000", "122207.968000", "122210.468000", "122211.966000", "122213.968000", "122215.968000", "122217.968000", "122220.468000", "122221.968000", "122223.969000", "122225.968000", "122227.968000", "122229.968000", "122232.468000", "122233.967000", "122236.469000", "122237.969000", "122239.969000", "122241.969000", "122243.968000", "122246.968000", "122247.968000", "122249.968000", "122251.969000", "122253.969000", "122255.969000", "122257.968000", "122259.968000", "122301.968000", "122304.468000", "122305.968000", "122307.968000", "122309.968000", "122311.969000", "122313.969000", "122315.969000", "122317.968000", "122319.968000", "122321.968000", "122323.968000", "122325.968000", "122328.469000", "122329.978000", "122331.968000", "122333.969000", "122336.468000", "122337.967000", "122340.468000", "122341.968000", "122343.968000", "122345.969000", "122347.969000", "122350.970000", "122351.968000", "122353.968000", "122355.967000", "122357.968000", "122359.968000", "122401.969000", "122403.969000", "122405.969000", "122407.969000", "122409.968000", "122411.968000", "122413.969000", "122415.968000", "122417.968000", "122420.468000", "122421.969000", "122424.469000", "122425.969000", "122428.468000", "122429.967000", "122432.468000", "122433.968000", "122436.468000", "122437.968000", "122440.969000", "122441.967000", "122443.969000", "122445.968000", "122447.968000", "122449.969000", "122451.968000", "122453.968000", "122455.969000", "122457.969000", "122500.468000", "122501.969000", "122504.468000", "122506.468000", "122508.468000", "122509.968000", "122511.969000", "122513.917000"],
      "InstanceCreationTime": ["121809.974000", "121810.967000", "121810.971000", "121811.967000", "121812.967000", "121812.971000", "121813.968000", "121813.972000", "121816.469000", "121818.469000", "121820.468000", "121821.967000", "121823.968000", "121825.968000", "121828.469000", "121829.968000", "121832.469000", "121833.968000", "121835.969000", "121837.968000", "121839.968000", "121841.968000", "121844.468000", "121845.967000", "121848.468000", "121850.469000", "121852.469000", "121853.969000", "121856.468000", "121857.967000", "121900.468000", "121901.968000", "121904.468000", "121905.968000", "121907.969000", "121909.969000", "121911.967000", "121913.968000", "121916.469000", "121917.972000", "121919.969000", "121921.969000", "121923.969000", "121925.969000", "121928.469000", "121929.968000", "121931.968000", "121933.968000", "121936.468000", "121937.966000", "121939.968000", "121941.969000", "121944.468000", "121945.969000", "121948.468000", "121949.967000", "121951.969000", "121953.969000", "121956.468000", "121958.468000", "121959.968000", "122001.968000", "122004.469000", "122005.967000", "122007.968000", "122009.967000", "122012.468000", "122013.967000", "122016.470000", "122017.969000", "122019.969000", "122021.968000", "122024.468000", "122025.967000", "122027.968000", "122029.968000", "122031.968000", "122033.969000", "122035.969000", "122037.969000", "122039.968000", "122041.968000", "122043.968000", "122045.969000", "122047.968000", "122049.968000", "122052.469000", "122053.968000", "122055.969000", "122057.968000", "122059.969000", "122101.968000", "122103.968000", "122105.968000", "122108.468000", "122109.968000", "122111.969000", "122113.969000", "122115.968000", "122117.968000", "122120.468000", "122121.968000", "122123.968000", "122125.968000", "122128.469000", "122130.469000", "122132.468000", "122133.968000", "122135.968000", "122137.968000", "122139.968000", "122141.968000", "122143.969000", "122145.969000", "122147.969000", "122149.968000", "122152.468000", "122153.968000", "122155.968000", "122157.968000", "122159.968000", "122201.969000", "122204.469000", "122205.970000", "122207.968000", "122210.468000", "122211.966000", "122213.968000", "122215.968000", "122217.968000", "122220.468000", "122221.968000", "122223.969000", "122225.968000", "122227.968000", "122229.968000", "122232.468000", "122233.967000", "122236.469000", "122237.969000", "122239.969000", "122241.969000", "122243.968000", "122246.968000", "122247.968000", "122249.968000", "122251.969000", "122253.969000", "122255.969000", "122257.968000", "122259.968000", "122301.968000", "122304.468000", "122305.968000", "122307.968000", "122309.968000", "122311.969000", "122313.969000", "122315.969000", "122317.968000", "122319.968000", "122321.968000", "122323.968000", "122325.968000", "122328.469000", "122329.978000", "122331.968000", "122333.969000", "122336.468000", "122337.967000", "122340.468000", "122341.968000", "122343.968000", "122345.969000", "122347.969000", "122350.970000", "122351.968000", "122353.968000", "122355.967000", "122357.968000", "122359.968000", "122401.969000", "122403.969000", "122405.969000", "122407.969000", "122409.968000", "122411.968000", "122413.969000", "122415.968000", "122417.968000", "122420.468000", "122421.969000", "122424.469000", "122425.969000", "122428.468000", "122429.967000", "122432.468000", "122433.968000", "122436.468000", "122437.968000", "122440.969000", "122441.967000", "122443.969000", "122445.968000", "122447.968000", "122449.969000", "122451.968000", "122453.968000", "122455.969000", "122457.969000", "122500.468000", "122501.969000", "122504.468000", "122506.468000", "122508.468000", "122509.968000", "122511.969000", "122513.917000"],
      "InstanceNumber": [1, 2, 3, 4, 5, 6, 7, 8, 9, 10, 11, 12, 13, 14, 15, 16, 17, 18, 19, 20, 21, 22, 23, 24, 25, 26, 27, 28, 29, 30, 31, 32, 33, 34, 35, 36, 37, 38, 39, 40, 41, 42, 43, 44, 45, 46, 47, 48, 49, 50, 51, 52, 53, 54, 55, 56, 57, 58, 59, 60, 61, 62, 63, 64, 65, 66, 67, 68, 69, 70, 71, 72, 73, 74, 75, 76, 77, 78, 79, 80, 81, 82, 83, 84, 85, 86, 87, 88, 89, 90, 91, 92, 93, 94, 95, 96, 97, 98, 99, 100, 101, 102, 103, 104, 105, 106, 107, 108, 109, 110, 111, 112, 113, 114, 115, 116, 117, 118, 119, 120, 121, 122, 123, 124, 125, 126, 127, 128, 129, 130, 131, 132, 133, 134, 135, 136, 137, 138, 139, 140, 141, 142, 143, 144, 145, 146, 147, 148, 149, 150, 151, 152, 153, 154, 155, 156, 157, 158, 159, 160, 161, 162, 163, 164, 165, 166, 167, 168, 169, 170, 171, 172, 173, 174, 175, 176, 177, 178, 179, 180, 181, 182, 183, 184, 185, 186, 187, 188, 189, 190, 191, 192, 193, 194, 195, 196, 197, 198, 199, 200, 201, 202, 203, 204, 205, 206, 207, 208, 209, 210, 211, 212, 213, 214, 215, 216, 217, 218],
      "WindowCenter": [19367.0, 19343.0, 19342.0, 19354.0, 19336.0, 19322.0, 19318.0, 19305.0, 19299.0, 19282.0, 19303.0, 19307.0, 19316.0, 19317.0, 19312.0, 19314.0, 19306.0, 19327.0, 19327.0, 19301.0, 19284.0, 19312.0, 19321.0, 19339.0, 19350.0, 19320.0, 19299.0, 19274.0, 19265.0, 19267.0, 19266.0, 19291.0, 19317.0, 19339.0, 19314.0, 19310.0, 19296.0, 19312.0, 19328.0, 19334.0, 19309.0, 19302.0, 19304.0, 19350.0, 19363.0, 19369.0, 19339.0, 19280.0, 19333.0, 19325.0, 19280.0, 19275.0, 19264.0, 19277.0, 19277.0, 19298.0, 19318.0, 19332.0, 19356.0, 19354.0, 19343.0, 19329.0, 19325.0, 19316.0, 19332.0, 19322.0, 19321.0, 19334.0, 19338.0, 19354.0, 19353.0, 19336.0, 19326.0, 19310.0, 19299.0, 19324.0, 19325.0, 19315.0, 19294.0, 19284.0, 19290.0, 19304.0, 19369.0, 19321.0, 19291.0, 19268.0, 19267.0, 19304.0, 19293.0, 19281.0, 19256.0, 19252.0, 19274.0, 19320.0, 19311.0, 19295.0, 19283.0, 19291.0, 19313.0, 19333.0, 19305.0, 19294.0, 19303.0, 19329.0, 19336.0, 19331.0, 19323.0, 19314.0, 19309.0, 19326.0, 19355.0, 19380.0, 19367.0, 19342.0, 19367.0, 19363.0, 19349.0, 19335.0, 19295.0, 19289.0, 19277.0, 19296.0, 19329.0, 19335.0, 19314.0, 19301.0, 19302.0, 19320.0, 19304.0, 19305.0, 19316.0, 19351.0, 19362.0, 19365.0, 19344.0, 19359.0, 19310.0, 19290.0, 19267.0, 19214.0, 19139.0, 19128.0, 19187.0, 19211.0, 19215.0, 19288.0, 19288.0, 19256.0, 19235.0, 19235.0, 19253.0, 19262.0, 19229.0, 19232.0, 19246.0, 19290.0, 19302.0, 19331.0, 19319.0, 19309.0, 19301.0, 19287.0, 19285.0, 19263.0, 19266.0, 19286.0, 19305.0, 19337.0, 19319.0, 19309.0, 19288.0, 19293.0, 19307.0, 19295.0, 19274.0, 19262.0, 19285.0, 19302.0, 19292.0, 19282.0, 19299.0, 19297.0, 19283.0, 19268.0, 19268.0, 19216.0, 19179.0, 19174.0, 19206.0, 19258.0, 19297.0, 19284.0, 19259.0, 19238.0, 19254.0, 19271.0, 19285.0, 19279.0, 19284.0, 19309.0, 19288.0, 19285.0, 19284.0, 19255.0, 19291.0, 19312.0, 19304.0, 19307.0, 19314.0, 19328.0, 19310.0, 19318.0, 19297.0, 19301.0, 19320.0, 19333.0, 19331.0, 19319.0],
      "WindowWidth": [47073.0, 47030.0, 47040.0, 47047.0, 47046.0, 46992.0, 46990.0, 47003.0, 46998.0, 46952.0, 46977.0, 46970.0, 46977.0, 46999.0, 46984.0, 46964.0, 46958.0, 47007.0, 47016.0, 46941.0, 46896.0, 46982.0, 47049.0, 47072.0, 47081.0, 46969.0, 46885.0, 46879.0, 46859.0, 46873.0, 46895.0, 46971.0, 47023.0, 47038.0, 47021.0, 46961.0, 46951.0, 47008.0, 47045.0, 47035.0, 47029.0, 46944.0, 46979.0, 47026.0, 47080.0, 47072.0, 46994.0, 46953.0, 47023.0, 46959.0, 46927.0, 46897.0, 46879.0, 46887.0, 46888.0, 46927.0, 46976.0, 47021.0, 47039.0, 47061.0, 47018.0, 47030.0, 47005.0, 47008.0, 47021.0, 47002.0, 47002.0, 46990.0, 47037.0, 47072.0, 47072.0, 47047.0, 46993.0, 46948.0, 46940.0, 46982.0, 47016.0, 47008.0, 46947.0, 46895.0, 46926.0, 46945.0, 47083.0, 47022.0, 46921.0, 46872.0, 46908.0, 46944.0, 46936.0, 46892.0, 46830.0, 46838.0, 46911.0, 46989.0, 46982.0, 46936.0, 46894.0, 46911.0, 46951.0, 46999.0, 46945.0, 46947.0, 46967.0, 47009.0, 47004.0, 46975.0, 46981.0, 46987.0, 46961.0, 46985.0, 47050.0, 47089.0, 47035.0, 47021.0, 47072.0, 47100.0, 47044.0, 46986.0, 46949.0, 46877.0, 46846.0, 46928.0, 46997.0, 46979.0, 46941.0, 46953.0, 46966.0, 46944.0, 46934.0, 46923.0, 46965.0, 47003.0, 47055.0, 46998.0, 46994.0, 47026.0, 46982.0, 46980.0, 46859.0, 46682.0, 46490.0, 46482.0, 46606.0, 46714.0, 46785.0, 46897.0, 46849.0, 46792.0, 46766.0, 46813.0, 46837.0, 46822.0, 46750.0, 46743.0, 46810.0, 46865.0, 46911.0, 46954.0, 46968.0, 46936.0, 46885.0, 46876.0, 46825.0, 46823.0, 46835.0, 46862.0, 46889.0, 46957.0, 46977.0, 46902.0, 46874.0, 46878.0, 46890.0, 46881.0, 46843.0, 46881.0, 46885.0, 46886.0, 46878.0, 46894.0, 46907.0, 46950.0, 46918.0, 46849.0, 46815.0, 46727.0, 46656.0, 46610.0, 46703.0, 46808.0, 46881.0, 46871.0, 46797.0, 46781.0, 46792.0, 46848.0, 46859.0, 46854.0, 46858.0, 46920.0, 46919.0, 46885.0, 46837.0, 46828.0, 46854.0, 46950.0, 46932.0, 46934.0, 46929.0, 46984.0, 46985.0, 46921.0, 46906.0, 46919.0, 46943.0, 46977.0, 46975.0, 46966.0]
    },
    "slices": {}
  }
}