{
  "AcquisitionMatrixPE": 116,
  "AcquisitionNumber": 1,
  "AcquisitionTime": "15:34:48.187500",
  "BandwidthPerPixelPhaseEncode": 18.539,
  "BaseResolution": 116,
  "BodyPartExamined": "HEAD",
  "ConsistencyInfo": "N4_VD13D_LATEST_20130810",
  "ConversionSoftware": "dcm2niix",
  "ConversionSoftwareVersion": "v1.0.20190410  (JP2:OpenJPEG) (JP-LS:CharLS) GCC5.5.0",
  "DerivedVendorReportedEchoSpacing": 0.000930006,
  "DeviceSerialNumber": "66014",
  "DwellTime": 3e-06,
  "EchoTime": 0.03,
  "EchoTrainLength": 50,
  "EffectiveEchoSpacing": 0.000465003,
  "FlipAngle": 81,
  "ImageComments": "Unaliased_MB3_PE4",
  "ImageOrientationPatientDICOM": [0.995084, 0.0443315, -0.0885553, -0.0713286, 0.941156, -0.330359],
  "ImageType": [
    "ORIGINAL",
    "PRIMARY",
    "M",
    "MB",
    "ND",
    "MOSAIC"
],
  "ImagingFrequency": 123.261,
  "InPlanePhaseEncodingDirectionDICOM": "COL",
  "InstitutionAddress": "Yiheyuan_Road_5_Beijing_Haidian_CN_100871",
  "InstitutionName": "Peking_University",
  "InstitutionalDepartmentName": "Department",
  "MRAcquisitionType": "2D",
  "MagneticFieldStrength": 3,
  "Manufacturer": "Siemens",
  "ManufacturersModelName": "Prisma",
  "Modality": "MR",
  "MultibandAccelerationFactor": 3,
  "ParallelReductionFactorInPlane": 2,
  "PartialFourier": 0.875,
  "PatientPosition": "HFS",
  "PercentPhaseFOV": 100,
  "PhaseEncodingDirection": "j-",
  "PhaseEncodingSteps": 101,
  "PhaseResolution": 1,
  "PixelBandwidth": 1435,
  "ProcedureStepDescription": "Research_Projects_64CH",
  "ProtocolName": "mbep2d_bold_MB3_test1",
  "PulseSequenceDetails": "%CustomerSeq%_cmrr_mbep2d_bold",
  "ReceiveCoilActiveElements": "HC1-7;NC1",
  "ReceiveCoilName": "HeadNeck_64",
  "ReconMatrixPE": 116,
  "RefLinesPE": 44,
  "RepetitionTime": 2,
  "SAR": 0.0523297,
  "ScanOptions": "PFP_FS",
  "ScanningSequence": "EP",
  "SequenceName": "epfid2d1_116",
  "SequenceVariant": "SK_SS",
  "SeriesDescription": "mbep2d_bold_MB3_test1",
  "SeriesNumber": 6,
  "ShimSetting": [-3459, -2150, -1946, 348, 1, -165, 77, 85],
  "SliceThickness": 1.9,
  "SliceTiming": [0, 0.9075, 1.815, 0.7425, 1.65, 0.5775, 1.485, 0.4125, 1.32, 0.2475, 1.155, 0.0825, 0.99, 1.8975, 0.825, 1.7325, 0.66, 1.5675, 0.495, 1.4025, 0.33, 1.2375, 0.165, 1.0725, 0, 0.9075, 1.815, 0.7425, 1.65, 0.5775, 1.485, 0.4125, 1.32, 0.2475, 1.155, 0.0825, 0.99, 1.8975, 0.825, 1.7325, 0.66, 1.5675, 0.495, 1.4025, 0.33, 1.2375, 0.165, 1.0725, 0, 0.9075, 1.815, 0.7425, 1.65, 0.5775, 1.485, 0.4125, 1.32, 0.2475, 1.155, 0.0825, 0.99, 1.8975, 0.825, 1.7325, 0.66, 1.5675, 0.495, 1.4025, 0.33, 1.2375, 0.165, 1.0725],
  "SoftwareVersions": "syngo_MR_D13D",
  "SpacingBetweenSlices": 1.9,
  "StationName": "AWP66014",
  "TaskName": "retrieval",
  "TotalReadoutTime": 0.0534753,
  "TxRefAmp": 220.142,
  "WipMemBlock": "05526550-f6ab-4fdb-99b4-f7dbc0ba2c40||Sequence: vd13d/master r/0735857; Nov 19 2014 09:21:40 by eja",
  "dcmmeta_affine": [
    [-1.8872287273406982, -0.13527832925319672, -0.1305282562971115, 116.70521545410156],
    [-0.08407703787088394, 1.7849515676498413, -0.6365979313850403, -77.02839660644531],
    [-0.16794975101947784, 0.626542866230011, 1.785414695739746, -86.58749389648438],
    [0.0, 0.0, 0.0, 1.0]
],
  "dcmmeta_reorient_transform": [
    [0.0, -1.0, 0.0, 115.0],
    [1.0, 0.0, 0.0, 0.0],
    [0.0, 0.0, 1.0, 0.0],
    [0.0, 0.0, 0.0, 1.0]
],
  "dcmmeta_shape": [116, 116, 72, 289],
  "dcmmeta_slice_dim": 2,
  "dcmmeta_version": 0.6,
  "global": {
    "const": {
      "AcquisitionMatrix": [116, 0, 0, 116],
      "AngioFlag": "N",
      "BitsAllocated": 16,
      "BitsStored": 16,
      "BodyPartExamined": "HEAD",
      "Columns": 1044,
      "EchoNumbers": 1,
      "EchoTime": 30.0,
      "EchoTrainLength": 50,
      "FlipAngle": 81.0,
      "HighBit": 15,
      "ImageOrientationPatient": [0.99508425302135, 0.04433152849665, -0.0885553215233, -0.071328575574, 0.94115630173502, -0.3303589714402],
      "ImagePositionPatient": [-914.05320752846, -995.4703277775, 354.10951601452],
      "ImageType": [
        "ORIGINAL",
        "PRIMARY",
        "M",
        "MB",
        "ND",
        "MOSAIC"
],
      "ImagedNucleus": "1H",
      "ImagingFrequency": 123.260602,
      "InPlanePhaseEncodingDirection": "COL",
      "LargestImagePixelValue": 65535,
      "MRAcquisitionType": "2D",
      "MagneticFieldStrength": 3.0,
      "Manufacturer": "SIEMENS",
      "ManufacturerModelName": "Prisma",
      "Modality": "MR",
      "NumberOfAverages": 1.0,
      "NumberOfPhaseEncodingSteps": 101,
      "PercentPhaseFieldOfView": 100.0,
      "PercentSampling": 100.0,
      "PerformedProcedureStepStartTime": "152222.425000",
      "PhotometricInterpretation": "MONOCHROME2",
      "PixelBandwidth": 1435.0,
      "PixelRepresentation": 0,
      "PixelSpacing": [1.8965517282486, 1.8965517282486],
      "ProtocolName": "mbep2d_bold_MB3_test1",
      "RepetitionTime": 2000.0,
      "Rows": 1044,
      "SAR": 0.05232972618251,
      "SamplesPerPixel": 1,
      "ScanOptions": [
        "PFP",
        "FS"
],
      "ScanningSequence": "EP",
      "SequenceName": "epfid2d1_116",
      "SequenceVariant": [
        "SK",
        "SS"
],
      "SeriesDescription": "mbep2d_bold_MB3_test1",
      "SeriesNumber": 6,
      "SeriesTime": "153508.452000",
      "SliceLocation": -63.574625657907,
      "SliceThickness": 1.8999999761581,
      "SmallestImagePixelValue": 0,
      "SoftwareVersions": "syngo MR D13D",
      "SpacingBetweenSlices": 1.8999999913975,
      "SpecificCharacterSet": "ISO_IR 100",
      "StudyID": "1",
      "StudyTime": "152222.343000",
      "TimeOfLastCalibration": ["123723.000000", "123723.000000"],
      "TransmitCoilName": "Body",
      "VariableFlipAngleFlag": "N",
      "WindowCenterWidthExplanation": "Algo1",
      "dBdt": 0.0},
    "slices": {}
  },
  "time": {
    "samples": {
      "AcquisitionNumber": [1, 2, 3, 4, 5, 6, 7, 8, 9, 10, 11, 12, 13, 14, 15, 16, 17, 18, 19, 20, 21, 22, 23, 24, 25, 26, 27, 28, 29, 30, 31, 32, 33, 34, 35, 36, 37, 38, 39, 40, 41, 42, 43, 44, 45, 46, 47, 48, 49, 50, 51, 52, 53, 54, 55, 56, 57, 58, 59, 60, 61, 62, 63, 64, 65, 66, 67, 68, 69, 70, 71, 72, 73, 74, 75, 76, 77, 78, 79, 80, 81, 82, 83, 84, 85, 86, 87, 88, 89, 90, 91, 92, 93, 94, 95, 96, 97, 98, 99, 100, 101, 102, 103, 104, 105, 106, 107, 108, 109, 110, 111, 112, 113, 114, 115, 116, 117, 118, 119, 120, 121, 122, 123, 124, 125, 126, 127, 128, 129, 130, 131, 132, 133, 134, 135, 136, 137, 138, 139, 140, 141, 142, 143, 144, 145, 146, 147, 148, 149, 150, 151, 152, 153, 154, 155, 156, 157, 158, 159, 160, 161, 162, 163, 164, 165, 166, 167, 168, 169, 170, 171, 172, 173, 174, 175, 176, 177, 178, 179, 180, 181, 182, 183, 184, 185, 186, 187, 188, 189, 190, 191, 192, 193, 194, 195, 196, 197, 198, 199, 200, 201, 202, 203, 204, 205, 206, 207, 208, 209, 210, 211, 212, 213, 214, 215, 216, 217, 218, 219, 220, 221, 222, 223, 224, 225, 226, 227, 228, 229, 230, 231, 232, 233, 234, 235, 236, 237, 238, 239, 240, 241, 242, 243, 244, 245, 246, 247, 248, 249, 250, 251, 252, 253, 254, 255, 256, 257, 258, 259, 260, 261, 262, 263, 264, 265, 266, 267, 268, 269, 270, 271, 272, 273, 274, 275, 276, 277, 278, 279, 280, 281, 282, 283, 284, 285, 286, 287, 288, 289],
      "AcquisitionTime": ["153448.187500", "153450.187500", "153452.187500", "153454.187500", "153456.187500", "153458.187500", "153500.187500", "153502.187500", "153504.187500", "153506.187500", "153508.187500", "153510.187500", "153512.187500", "153514.187500", "153516.187500", "153518.187500", "153520.187500", "153522.187500", "153524.187500", "153526.187500", "153528.187500", "153530.187500", "153532.187500", "153534.187500", "153536.187500", "153538.187500", "153540.187500", "153542.187500", "153544.187500", "153546.187500", "153548.187500", "153550.187500", "153552.187500", "153554.187500", "153556.187500", "153558.187500", "153600.187500", "153602.187500", "153604.187500", "153606.187500", "153608.187500", "153610.187500", "153612.187500", "153614.187500", "153616.187500", "153618.187500", "153620.187500", "153622.187500", "153624.187500", "153626.187500", "153628.187500", "153630.187500", "153632.187500", "153634.187500", "153636.187500", "153638.187500", "153640.187500", "153642.187500", "153644.187500", "153646.187500", "153648.187500", "153650.187500", "153652.187500", "153654.187500", "153656.187500", "153658.187500", "153700.187500", "153702.187500", "153704.187500", "153706.187500", "153708.187500", "153710.187500", "153712.187500", "153714.187500", "153716.187500", "153718.187500", "153720.187500", "153722.187500", "153724.187500", "153726.187500", "153728.187500", "153730.187500", "153732.187500", "153734.187500", "153736.187500", "153738.187500", "153740.187500", "153742.187500", "153744.187500", "153746.187500", "153748.187500", "153750.187500", "153752.187500", "153754.187500", "153756.187500", "153758.187500", "153800.187500", "153802.187500", "153804.187500", "153806.187500", "153808.187500", "153810.187500", "153812.187500", "153814.187500", "153816.187500", "153818.187500", "153820.187500", "153822.187500", "153824.187500", "153826.187500", "153828.187500", "153830.187500", "153832.187500", "153834.187500", "153836.187500", "153838.187500", "153840.187500", "153842.187500", "153844.187500", "153846.187500", "153848.187500", "153850.187500", "153852.187500", "153854.187500", "153856.187500", "153858.190000", "153900.190000", "153902.190000", "153904.190000", "153906.190000", "153908.190000", "153910.190000", "153912.190000", "153914.190000", "153916.190000", "153918.190000", "153920.190000", "153922.190000", "153924.190000", "153926.190000", "153928.190000", "153930.190000", "153932.190000", "153934.190000", "153936.190000", "153938.190000", "153940.190000", "153942.190000", "153944.190000", "153946.190000", "153948.190000", "153950.190000", "153952.190000", "153954.190000", "153956.190000", "153958.190000", "154000.190000", "154002.190000", "154004.190000", "154006.190000", "154008.190000", "154010.190000", "154012.190000", "154014.190000", "154016.190000", "154018.190000", "154020.190000", "154022.190000", "154024.190000", "154026.190000", "154028.190000", "154030.190000", "154032.190000", "154034.190000", "154036.190000", "154038.190000", "154040.190000", "154042.190000", "154044.190000", "154046.190000", "154048.190000", "154050.190000", "154052.190000", "154054.190000", "154056.190000", "154058.190000", "154100.190000", "154102.190000", "154104.190000", "154106.190000", "154108.190000", "154110.190000", "154112.190000", "154114.190000", "154116.190000", "154118.190000", "154120.190000", "154122.190000", "154124.190000", "154126.190000", "154128.190000", "154130.190000", "154132.190000", "154134.190000", "154136.190000", "154138.190000", "154140.190000", "154142.190000", "154144.190000", "154146.190000", "154148.190000", "154150.190000", "154152.190000", "154154.190000", "154156.190000", "154158.190000", "154200.190000", "154202.190000", "154204.190000", "154206.190000", "154208.190000", "154210.190000", "154212.190000", "154214.190000", "154216.190000", "154218.190000", "154220.190000", "154222.190000", "154224.190000", "154226.190000", "154228.190000", "154230.190000", "154232.190000", "154234.190000", "154236.190000", "154238.190000", "154240.190000", "154242.190000", "154244.190000", "154246.190000", "154248.190000", "154250.190000", "154252.190000", "154254.190000", "154256.190000", "154258.190000", "154300.190000", "154302.190000", "154304.190000", "154306.190000", "154308.190000", "154310.190000", "154312.190000", "154314.190000", "154316.190000", "154318.190000", "154320.190000", "154322.190000", "154324.190000", "154326.190000", "154328.190000", "154330.190000", "154332.190000", "154334.190000", "154336.190000", "154338.190000", "154340.190000", "154342.190000", "154344.190000", "154346.190000", "154348.190000", "154350.190000", "154352.190000", "154354.190000", "154356.190000", "154358.190000", "154400.190000", "154402.190000", "154404.190000", "154406.190000", "154408.190000", "154410.190000", "154412.190000", "154414.190000", "154416.190000", "154418.190000", "154420.190000", "154422.190000", "154424.190000"],
      "ContentTime": ["153508.457000", "153509.450000", "153510.451000", "153510.456000", "153511.450000", "153512.449000", "153513.450000", "153514.451000", "153515.451000", "153515.455000", "153516.451000", "153517.451000", "153518.452000", "153519.450000", "153521.451000", "153523.451000", "153525.451000", "153527.451000", "153529.451000", "153531.452000", "153533.451000", "153535.452000", "153537.451000", "153539.450000", "153541.451000", "153543.451000", "153545.451000", "153547.450000", "153549.452000", "153551.452000", "153553.452000", "153555.449000", "153557.451000", "153559.450000", "153601.452000", "153603.451000", "153605.452000", "153607.452000", "153609.452000", "153611.451000", "153613.450000", "153615.451000", "153617.451000", "153619.451000", "153621.450000", "153623.451000", "153625.451000", "153627.452000", "153629.450000", "153631.451000", "153633.451000", "153635.451000", "153637.451000", "153639.451000", "153641.452000", "153643.452000", "153645.452000", "153647.451000", "153649.451000", "153651.451000", "153653.451000", "153655.450000", "153657.451000", "153659.452000", "153701.452000", "153703.451000", "153705.451000", "153707.451000", "153709.451000", "153711.451000", "153713.451000", "153715.451000", "153717.452000", "153719.452000", "153721.450000", "153723.450000", "153725.451000", "153727.450000", "153729.451000", "153731.451000", "153733.452000", "153735.452000", "153737.452000", "153739.450000", "153741.451000", "153743.452000", "153745.451000", "153747.451000", "153749.451000", "153751.451000", "153753.453000", "153755.453000", "153757.451000", "153759.451000", "153801.452000", "153803.451000", "153805.451000", "153807.451000", "153809.452000", "153811.452000", "153813.452000", "153815.451000", "153817.451000", "153819.451000", "153821.450000", "153823.451000", "153825.451000", "153827.452000", "153829.452000", "153831.451000", "153833.450000", "153835.449000", "153837.450000", "153839.451000", "153841.451000", "153843.451000", "153845.452000", "153847.451000", "153849.451000", "153851.451000", "153853.451000", "153855.451000", "153857.451000", "153859.451000", "153901.452000", "153903.451000", "153905.452000", "153907.451000", "153909.451000", "153911.451000", "153913.451000", "153915.450000", "153917.452000", "153919.451000", "153921.452000", "153923.451000", "153925.451000", "153927.451000", "153929.450000", "153931.450000", "153933.451000", "153935.452000", "153937.452000", "153939.451000", "153941.451000", "153943.451000", "153945.449000", "153947.451000", "153949.451000", "153951.451000", "153953.452000", "153955.452000", "153957.451000", "153959.451000", "154001.452000", "154003.452000", "154005.451000", "154007.450000", "154009.451000", "154011.452000", "154013.452000", "154015.452000", "154017.451000", "154019.451000", "154021.451000", "154023.451000", "154025.451000", "154027.452000", "154029.451000", "154031.452000", "154033.450000", "154035.451000", "154037.452000", "154039.451000", "154041.451000", "154043.450000", "154045.461000", "154047.452000", "154049.452000", "154051.450000", "154053.451000", "154055.451000", "154057.451000", "154059.449000", "154101.451000", "154103.452000", "154105.452000", "154107.452000", "154109.451000", "154111.451000", "154113.451000", "154115.451000", "154117.452000", "154119.451000", "154121.453000", "154123.452000", "154125.452000", "154127.451000", "154129.451000", "154131.451000", "154133.451000", "154135.451000", "154137.452000", "154139.452000", "154141.452000", "154143.452000", "154145.451000", "154147.451000", "154149.451000", "154151.451000", "154153.451000", "154155.451000", "154157.451000", "154159.451000", "154201.451000", "154203.451000", "154205.451000", "154207.451000", "154209.452000", "154211.451000", "154213.452000", "154215.453000", "154217.452000", "154219.450000", "154221.451000", "154223.451000", "154225.451000", "154227.451000", "154229.451000", "154231.452000", "154233.451000", "154235.453000", "154237.451000", "154239.451000", "154241.451000", "154243.452000", "154245.452000", "154247.452000", "154249.452000", "154251.452000", "154253.451000", "154255.451000", "154257.452000", "154259.451000", "154301.451000", "154303.451000", "154305.452000", "154307.452000", "154309.451000", "154311.450000", "154313.451000", "154315.451000", "154317.451000", "154319.451000", "154321.451000", "154323.451000", "154325.451000", "154327.452000", "154329.450000", "154331.451000", "154333.451000", "154335.450000", "154337.452000", "154339.451000", "154341.452000", "154343.453000", "154345.452000", "154347.451000", "154349.451000", "154351.452000", "154353.451000", "154355.451000", "154357.452000", "154359.452000", "154401.452000", "154403.451000", "154405.451000", "154407.450000", "154409.451000", "154411.449000", "154413.450000", "154415.451000", "154417.451000", "154419.451000", "154421.450000", "154423.450000", "154425.450000", "154427.450000", "154428.984000"],
      "InstanceCreationTime": ["153508.457000", "153509.450000", "153510.451000", "153510.456000", "153511.450000", "153512.449000", "153513.450000", "153514.451000", "153515.451000", "153515.455000", "153516.451000", "153517.451000", "153518.452000", "153519.450000", "153521.451000", "153523.451000", "153525.451000", "153527.451000", "153529.451000", "153531.452000", "153533.451000", "153535.452000", "153537.451000", "153539.450000", "153541.451000", "153543.451000", "153545.451000", "153547.450000", "153549.452000", "153551.452000", "153553.452000", "153555.449000", "153557.451000", "153559.450000", "153601.452000", "153603.451000", "153605.452000", "153607.452000", "153609.452000", "153611.451000", "153613.450000", "153615.451000", "153617.451000", "153619.451000", "153621.450000", "153623.451000", "153625.451000", "153627.452000", "153629.450000", "153631.451000", "153633.451000", "153635.451000", "153637.451000", "153639.451000", "153641.452000", "153643.452000", "153645.452000", "153647.451000", "153649.451000", "153651.451000", "153653.451000", "153655.450000", "153657.451000", "153659.452000", "153701.452000", "153703.451000", "153705.451000", "153707.451000", "153709.451000", "153711.451000", "153713.451000", "153715.451000", "153717.452000", "153719.452000", "153721.450000", "153723.450000", "153725.451000", "153727.450000", "153729.451000", "153731.451000", "153733.452000", "153735.452000", "153737.452000", "153739.450000", "153741.451000", "153743.452000", "153745.451000", "153747.451000", "153749.451000", "153751.451000", "153753.453000", "153755.453000", "153757.451000", "153759.451000", "153801.452000", "153803.451000", "153805.451000", "153807.451000", "153809.452000", "153811.452000", "153813.452000", "153815.451000", "153817.451000", "153819.451000", "153821.450000", "153823.451000", "153825.451000", "153827.452000", "153829.452000", "153831.451000", "153833.450000", "153835.449000", "153837.450000", "153839.451000", "153841.451000", "153843.451000", "153845.452000", "153847.451000", "153849.451000", "153851.451000", "153853.451000", "153855.451000", "153857.451000", "153859.451000", "153901.452000", "153903.451000", "153905.452000", "153907.451000", "153909.451000", "153911.451000", "153913.451000", "153915.450000", "153917.452000", "153919.451000", "153921.452000", "153923.451000", "153925.451000", "153927.451000", "153929.450000", "153931.450000", "153933.451000", "153935.452000", "153937.452000", "153939.451000", "153941.451000", "153943.451000", "153945.449000", "153947.451000", "153949.451000", "153951.451000", "153953.452000", "153955.452000", "153957.451000", "153959.451000", "154001.452000", "154003.452000", "154005.451000", "154007.450000", "154009.451000", "154011.452000", "154013.452000", "154015.452000", "154017.451000", "154019.451000", "154021.451000", "154023.451000", "154025.451000", "154027.452000", "154029.451000", "154031.452000", "154033.450000", "154035.451000", "154037.452000", "154039.451000", "154041.451000", "154043.450000", "154045.461000", "154047.452000", "154049.452000", "154051.450000", "154053.451000", "154055.451000", "154057.451000", "154059.449000", "154101.451000", "154103.452000", "154105.452000", "154107.452000", "154109.451000", "154111.451000", "154113.451000", "154115.451000", "154117.452000", "154119.451000", "154121.453000", "154123.452000", "154125.452000", "154127.451000", "154129.451000", "154131.451000", "154133.451000", "154135.451000", "154137.452000", "154139.452000", "154141.452000", "154143.452000", "154145.451000", "154147.451000", "154149.451000", "154151.451000", "154153.451000", "154155.451000", "154157.451000", "154159.451000", "154201.451000", "154203.451000", "154205.451000", "154207.451000", "154209.452000", "154211.451000", "154213.452000", "154215.453000", "154217.452000", "154219.450000", "154221.451000", "154223.451000", "154225.451000", "154227.451000", "154229.451000", "154231.452000", "154233.451000", "154235.453000", "154237.451000", "154239.451000", "154241.451000", "154243.452000", "154245.452000", "154247.452000", "154249.452000", "154251.452000", "154253.451000", "154255.451000", "154257.452000", "154259.451000", "154301.451000", "154303.451000", "154305.452000", "154307.452000", "154309.451000", "154311.450000", "154313.451000", "154315.451000", "154317.451000", "154319.451000", "154321.451000", "154323.451000", "154325.451000", "154327.452000", "154329.450000", "154331.451000", "154333.451000", "154335.450000", "154337.452000", "154339.451000", "154341.452000", "154343.453000", "154345.452000", "154347.451000", "154349.451000", "154351.452000", "154353.451000", "154355.451000", "154357.452000", "154359.452000", "154401.452000", "154403.451000", "154405.451000", "154407.450000", "154409.451000", "154411.449000", "154413.450000", "154415.451000", "154417.451000", "154419.451000", "154421.450000", "154423.450000", "154425.450000", "154427.450000", "154428.984000"],
      "InstanceNumber": [1, 2, 3, 4, 5, 6, 7, 8, 9, 10, 11, 12, 13, 14, 15, 16, 17, 18, 19, 20, 21, 22, 23, 24, 25, 26, 27, 28, 29, 30, 31, 32, 33, 34, 35, 36, 37, 38, 39, 40, 41, 42, 43, 44, 45, 46, 47, 48, 49, 50, 51, 52, 53, 54, 55, 56, 57, 58, 59, 60, 61, 62, 63, 64, 65, 66, 67, 68, 69, 70, 71, 72, 73, 74, 75, 76, 77, 78, 79, 80, 81, 82, 83, 84, 85, 86, 87, 88, 89, 90, 91, 92, 93, 94, 95, 96, 97, 98, 99, 100, 101, 102, 103, 104, 105, 106, 107, 108, 109, 110, 111, 112, 113, 114, 115, 116, 117, 118, 119, 120, 121, 122, 123, 124, 125, 126, 127, 128, 129, 130, 131, 132, 133, 134, 135, 136, 137, 138, 139, 140, 141, 142, 143, 144, 145, 146, 147, 148, 149, 150, 151, 152, 153, 154, 155, 156, 157, 158, 159, 160, 161, 162, 163, 164, 165, 166, 167, 168, 169, 170, 171, 172, 173, 174, 175, 176, 177, 178, 179, 180, 181, 182, 183, 184, 185, 186, 187, 188, 189, 190, 191, 192, 193, 194, 195, 196, 197, 198, 199, 200, 201, 202, 203, 204, 205, 206, 207, 208, 209, 210, 211, 212, 213, 214, 215, 216, 217, 218, 219, 220, 221, 222, 223, 224, 225, 226, 227, 228, 229, 230, 231, 232, 233, 234, 235, 236, 237, 238, 239, 240, 241, 242, 243, 244, 245, 246, 247, 248, 249, 250, 251, 252, 253, 254, 255, 256, 257, 258, 259, 260, 261, 262, 263, 264, 265, 266, 267, 268, 269, 270, 271, 272, 273, 274, 275, 276, 277, 278, 279, 280, 281, 282, 283, 284, 285, 286, 287, 288, 289],
      "WindowCenter": [16983.0, 16951.0, 16958.0, 16956.0, 16933.0, 16945.0, 16953.0, 16950.0, 16964.0, 16943.0, 16941.0, 16950.0, 16948.0, 16966.0, 16962.0, 16948.0, 16928.0, 16949.0, 16964.0, 16938.0, 16954.0, 16954.0, 16967.0, 16953.0, 16965.0, 16957.0, 16952.0, 16968.0, 16961.0, 16971.0, 16965.0, 16959.0, 16958.0, 16972.0, 16973.0, 16975.0, 16964.0, 16941.0, 16965.0, 16974.0, 16968.0, 16979.0, 16962.0, 16957.0, 16972.0, 16962.0, 16963.0, 16963.0, 16971.0, 16974.0, 16965.0, 16973.0, 16979.0, 16961.0, 16972.0, 16965.0, 16989.0, 17018.0, 16987.0, 16981.0, 16989.0, 16977.0, 16986.0, 16980.0, 16972.0, 16959.0, 16970.0, 16966.0, 16978.0, 16994.0, 16985.0, 16970.0, 16968.0, 16964.0, 16979.0, 16976.0, 16980.0, 16960.0, 16957.0, 16962.0, 16972.0, 16995.0, 16984.0, 16995.0, 16969.0, 16976.0, 16993.0, 16985.0, 16985.0, 16978.0, 16962.0, 16987.0, 16992.0, 16991.0, 16972.0, 16981.0, 16977.0, 16969.0, 16981.0, 16986.0, 16993.0, 16980.0, 16966.0, 16965.0, 16983.0, 16990.0, 16987.0, 16993.0, 16979.0, 16971.0, 16986.0, 16995.0, 17013.0, 16997.0, 17001.0, 16992.0, 17000.0, 16998.0, 16985.0, 16990.0, 16971.0, 16993.0, 16986.0, 16979.0, 16987.0, 16985.0, 17001.0, 17019.0, 17001.0, 16978.0, 16984.0, 16988.0, 16977.0, 16971.0, 17003.0, 16992.0, 17018.0, 17011.0, 16982.0, 16980.0, 17003.0, 17033.0, 17020.0, 17006.0, 17007.0, 17000.0, 17004.0, 17003.0, 17019.0, 17007.0, 17002.0, 17005.0, 17015.0, 16995.0, 16998.0, 16993.0, 16995.0, 17000.0, 16998.0, 17006.0, 17009.0, 17011.0, 17005.0, 17002.0, 17010.0, 17004.0, 17013.0, 17026.0, 17022.0, 17023.0, 17022.0, 17010.0, 17020.0, 17007.0, 17035.0, 17000.0, 17048.0, 17031.0, 17048.0, 17025.0, 17004.0, 17015.0, 17040.0, 17054.0, 17052.0, 17054.0, 17078.0, 17078.0, 17092.0, 17075.0, 17093.0, 17098.0, 17096.0, 17090.0, 17088.0, 17103.0, 17091.0, 17085.0, 17078.0, 17077.0, 17069.0, 17071.0, 17069.0, 17077.0, 17068.0, 17073.0, 17078.0, 17063.0, 17072.0, 17063.0, 17054.0, 17056.0, 17049.0, 17066.0, 17085.0, 17047.0, 17096.0, 17100.0, 17080.0, 17060.0, 17056.0, 17073.0, 17072.0, 17067.0, 17064.0, 17054.0, 17046.0, 17066.0, 17082.0, 17077.0, 17070.0, 17070.0, 17068.0, 17052.0, 17044.0, 17054.0, 17063.0, 17095.0, 17087.0, 17081.0, 17095.0, 17085.0, 17095.0, 17092.0, 17090.0, 17082.0, 17079.0, 17078.0, 17075.0, 17084.0, 17059.0, 17066.0, 17056.0, 17068.0, 17079.0, 17067.0, 17056.0, 17076.0, 17060.0, 17058.0, 17059.0, 17054.0, 17078.0, 17065.0, 17083.0, 17072.0, 17065.0, 17059.0, 17074.0, 17073.0, 17058.0, 17067.0, 17086.0, 17096.0, 17062.0, 17063.0, 17058.0, 17058.0, 17058.0, 17072.0, 17073.0, 17075.0, 17051.0, 17034.0, 17017.0, 17045.0, 17053.0, 17036.0, 17031.0],
      "WindowWidth": [46456.0, 46240.0, 46258.0, 46229.0, 46211.0, 46234.0, 46293.0, 46278.0, 46248.0, 46243.0, 46217.0, 46263.0, 46300.0, 46313.0, 46322.0, 46234.0, 46231.0, 46300.0, 46337.0, 46291.0, 46291.0, 46281.0, 46301.0, 46317.0, 46301.0, 46320.0, 46341.0, 46301.0, 46284.0, 46305.0, 46312.0, 46308.0, 46334.0, 46333.0, 46358.0, 46358.0, 46297.0, 46267.0, 46326.0, 46334.0, 46316.0, 46285.0, 46262.0, 46258.0, 46256.0, 46260.0, 46209.0, 46222.0, 46243.0, 46259.0, 46317.0, 46309.0, 46274.0, 46298.0, 46268.0, 46276.0, 46360.0, 46395.0, 46395.0, 46340.0, 46308.0, 46338.0, 46359.0, 46304.0, 46295.0, 46298.0, 46319.0, 46367.0, 46387.0, 46298.0, 46280.0, 46283.0, 46267.0, 46265.0, 46302.0, 46300.0, 46224.0, 46209.0, 46205.0, 46209.0, 46296.0, 46328.0, 46331.0, 46287.0, 46280.0, 46286.0, 46327.0, 46345.0, 46305.0, 46262.0, 46288.0, 46360.0, 46417.0, 46350.0, 46295.0, 46315.0, 46325.0, 46279.0, 46328.0, 46360.0, 46350.0, 46302.0, 46290.0, 46317.0, 46370.0, 46349.0, 46332.0, 46325.0, 46287.0, 46253.0, 46280.0, 46341.0, 46391.0, 46367.0, 46344.0, 46363.0, 46421.0, 46343.0, 46305.0, 46297.0, 46308.0, 46337.0, 46370.0, 46339.0, 46281.0, 46308.0, 46374.0, 46437.0, 46396.0, 46349.0, 46290.0, 46256.0, 46262.0, 46348.0, 46439.0, 46502.0, 46418.0, 46365.0, 46356.0, 46406.0, 46491.0, 46538.0, 46462.0, 46387.0, 46387.0, 46396.0, 46428.0, 46426.0, 46397.0, 46364.0, 46372.0, 46360.0, 46331.0, 46316.0, 46304.0, 46339.0, 46343.0, 46320.0, 46331.0, 46340.0, 46379.0, 46368.0, 46388.0, 46436.0, 46442.0, 46401.0, 46408.0, 46432.0, 46428.0, 46440.0, 46427.0, 46429.0, 46399.0, 46392.0, 46504.0, 45991.0, 46585.0, 46443.0, 46365.0, 46257.0, 46205.0, 46301.0, 46437.0, 46435.0, 46457.0, 46524.0, 46631.0, 46683.0, 46692.0, 46692.0, 46682.0, 46776.0, 46826.0, 46805.0, 46830.0, 46803.0, 46767.0, 46725.0, 46719.0, 46730.0, 46725.0, 46700.0, 46661.0, 46667.0, 46726.0, 46741.0, 46706.0, 46655.0, 46638.0, 46631.0, 46636.0, 46623.0, 46618.0, 46657.0, 46686.0, 46510.0, 46812.0, 46737.0, 46605.0, 46500.0, 46522.0, 46588.0, 46627.0, 46634.0, 46578.0, 46520.0, 46527.0, 46584.0, 46684.0, 46703.0, 46634.0, 46572.0, 46546.0, 46560.0, 46592.0, 46611.0, 46655.0, 46669.0, 46675.0, 46699.0, 46722.0, 46751.0, 46773.0, 46807.0, 46729.0, 46659.0, 46669.0, 46707.0, 46692.0, 46635.0, 46603.0, 46570.0, 46602.0, 46648.0, 46669.0, 46606.0, 46573.0, 46565.0, 46605.0, 46615.0, 46615.0, 46636.0, 46616.0, 46619.0, 46620.0, 46624.0, 46620.0, 46628.0, 46600.0, 46615.0, 46653.0, 46685.0, 46726.0, 46684.0, 46669.0, 46631.0, 46625.0, 46626.0, 46629.0, 46663.0, 46688.0, 46627.0, 46635.0, 46423.0, 46236.0, 46585.0, 46590.0, 46540.0, 46512.0]
    },
    "slices": {}
  }
}