{
  "AcquisitionMatrixPE": 116,
  "AcquisitionNumber": 1,
  "AcquisitionTime": "16:41:43.882500",
  "BandwidthPerPixelPhaseEncode": 18.539,
  "BaseResolution": 116,
  "BodyPartExamined": "HEAD",
  "ConsistencyInfo": "N4_VD13D_LATEST_20130810",
  "ConversionSoftware": "dcm2niix",
  "ConversionSoftwareVersion": "v1.0.20190410  (JP2:OpenJPEG) (JP-LS:CharLS) GCC5.5.0",
  "DerivedVendorReportedEchoSpacing": 0.000930006,
  "DeviceSerialNumber": "66014",
  "DwellTime": 3e-06,
  "EchoTime": 0.03,
  "EchoTrainLength": 50,
  "EffectiveEchoSpacing": 0.000465003,
  "FlipAngle": 81,
  "ImageComments": "Unaliased_MB3_PE4",
  "ImageOrientationPatientDICOM": [0.995084, 0.0443315, -0.0885553, -0.0713286, 0.941156, -0.330359],
  "ImageType": [
    "ORIGINAL",
    "PRIMARY",
    "M",
    "MB",
    "ND",
    "MOSAIC"
],
  "ImagingFrequency": 123.261,
  "InPlanePhaseEncodingDirectionDICOM": "COL",
  "InstitutionAddress": "Yiheyuan_Road_5_Beijing_Haidian_CN_100871",
  "InstitutionName": "Peking_University",
  "InstitutionalDepartmentName": "Department",
  "MRAcquisitionType": "2D",
  "MagneticFieldStrength": 3,
  "Manufacturer": "Siemens",
  "ManufacturersModelName": "Prisma",
  "Modality": "MR",
  "MultibandAccelerationFactor": 3,
  "ParallelReductionFactorInPlane": 2,
  "PartialFourier": 0.875,
  "PatientPosition": "HFS",
  "PercentPhaseFOV": 100,
  "PhaseEncodingDirection": "j-",
  "PhaseEncodingSteps": 101,
  "PhaseResolution": 1,
  "PixelBandwidth": 1435,
  "ProcedureStepDescription": "Research_Projects_64CH",
  "ProtocolName": "mbep2d_bold_MB3_loca3",
  "PulseSequenceDetails": "%CustomerSeq%_cmrr_mbep2d_bold",
  "ReceiveCoilActiveElements": "HC1-7;NC1",
  "ReceiveCoilName": "HeadNeck_64",
  "ReconMatrixPE": 116,
  "RefLinesPE": 44,
  "RepetitionTime": 2,
  "SAR": 0.0518601,
  "ScanOptions": "PFP_FS",
  "ScanningSequence": "EP",
  "SequenceName": "epfid2d1_116",
  "SequenceVariant": "SK_SS",
  "SeriesDescription": "mbep2d_bold_MB3_loca3",
  "SeriesNumber": 12,
  "ShimSetting": [-3460, -2150, -1952, 314, -11, -133, 97, 55],
  "SliceThickness": 1.9,
  "SliceTiming": [0, 0.9075, 1.815, 0.7425, 1.65, 0.5775, 1.485, 0.4125, 1.32, 0.2475, 1.155, 0.0825, 0.99, 1.8975, 0.825, 1.7325, 0.66, 1.5675, 0.495, 1.4025, 0.33, 1.2375, 0.165, 1.0725, 0, 0.9075, 1.815, 0.7425, 1.65, 0.5775, 1.485, 0.4125, 1.32, 0.2475, 1.155, 0.0825, 0.99, 1.8975, 0.825, 1.7325, 0.66, 1.5675, 0.495, 1.4025, 0.33, 1.2375, 0.165, 1.0725, 0, 0.9075, 1.815, 0.7425, 1.65, 0.5775, 1.485, 0.4125, 1.32, 0.2475, 1.155, 0.0825, 0.99, 1.8975, 0.825, 1.7325, 0.66, 1.5675, 0.495, 1.4025, 0.33, 1.2375, 0.165, 1.0725],
  "SoftwareVersions": "syngo_MR_D13D",
  "SpacingBetweenSlices": 1.9,
  "StationName": "AWP66014",
  "TaskName": "localizer",
  "TotalReadoutTime": 0.0534753,
  "TxRefAmp": 221.17,
  "WipMemBlock": "083ce322-6322-4ae1-82ab-cb4401bc66d2||Sequence: vd13d/master r/0735857; Nov 19 2014 09:21:40 by eja",
  "dcmmeta_affine": [
    [-1.8872287273406982, -0.13527832925319672, -0.1305282562971115, 116.70521545410156],
    [-0.08407703787088394, 1.7849515676498413, -0.6365979313850403, -77.02839660644531],
    [-0.16794975101947784, 0.626542866230011, 1.785414695739746, -86.58749389648438],
    [0.0, 0.0, 0.0, 1.0]
],
  "dcmmeta_reorient_transform": [
    [0.0, -1.0, 0.0, 115.0],
    [1.0, 0.0, 0.0, 0.0],
    [0.0, 0.0, 1.0, 0.0],
    [0.0, 0.0, 0.0, 1.0]
],
  "dcmmeta_shape": [116, 116, 72, 164],
  "dcmmeta_slice_dim": 2,
  "dcmmeta_version": 0.6,
  "global": {
    "const": {
      "AcquisitionMatrix": [116, 0, 0, 116],
      "AngioFlag": "N",
      "BitsAllocated": 16,
      "BitsStored": 16,
      "BodyPartExamined": "HEAD",
      "Columns": 1044,
      "EchoNumbers": 1,
      "EchoTime": 30.0,
      "EchoTrainLength": 50,
      "FlipAngle": 81.0,
      "HighBit": 15,
      "ImageOrientationPatient": [0.99508425302135, 0.04433152849665, -0.0885553215233, -0.071328575574, 0.94115630173502, -0.3303589714402],
      "ImagePositionPatient": [-914.05320752846, -995.4703277775, 354.10951601452],
      "ImageType": [
        "ORIGINAL",
        "PRIMARY",
        "M",
        "MB",
        "ND",
        "MOSAIC"
],
      "ImagedNucleus": "1H",
      "ImagingFrequency": 123.260629,
      "InPlanePhaseEncodingDirection": "COL",
      "LargestImagePixelValue": 65535,
      "MRAcquisitionType": "2D",
      "MagneticFieldStrength": 3.0,
      "Manufacturer": "SIEMENS",
      "ManufacturerModelName": "Prisma",
      "Modality": "MR",
      "NumberOfAverages": 1.0,
      "NumberOfPhaseEncodingSteps": 101,
      "PercentPhaseFieldOfView": 100.0,
      "PercentSampling": 100.0,
      "PerformedProcedureStepStartTime": "152222.425000",
      "PhotometricInterpretation": "MONOCHROME2",
      "PixelBandwidth": 1435.0,
      "PixelRepresentation": 0,
      "PixelSpacing": [1.8965517282486, 1.8965517282486],
      "ProtocolName": "mbep2d_bold_MB3_loca3",
      "RepetitionTime": 2000.0,
      "Rows": 1044,
      "SAR": 0.05186008528912,
      "SamplesPerPixel": 1,
      "ScanOptions": [
        "PFP",
        "FS"
],
      "ScanningSequence": "EP",
      "SequenceName": "epfid2d1_116",
      "SequenceVariant": [
        "SK",
        "SS"
],
      "SeriesDescription": "mbep2d_bold_MB3_loca3",
      "SeriesNumber": 12,
      "SeriesTime": "164204.291000",
      "SliceLocation": -63.574625657907,
      "SliceThickness": 1.8999999761581,
      "SmallestImagePixelValue": 0,
      "SoftwareVersions": "syngo MR D13D",
      "SpacingBetweenSlices": 1.8999999913975,
      "SpecificCharacterSet": "ISO_IR 100",
      "StudyID": "1",
      "StudyTime": "152222.343000",
      "TimeOfLastCalibration": ["123723.000000", "123723.000000"],
      "TransmitCoilName": "Body",
      "VariableFlipAngleFlag": "N",
      "WindowCenterWidthExplanation": "Algo1",
      "dBdt": 0.0},
    "slices": {}
  },
  "time": {
    "samples": {
      "AcquisitionNumber": [1, 2, 3, 4, 5, 6, 7, 8, 9, 10, 11, 12, 13, 14, 15, 16, 17, 18, 19, 20, 21, 22, 23, 24, 25, 26, 27, 28, 29, 30, 31, 32, 33, 34, 35, 36, 37, 38, 39, 40, 41, 42, 43, 44, 45, 46, 47, 48, 49, 50, 51, 52, 53, 54, 55, 56, 57, 58, 59, 60, 61, 62, 63, 64, 65, 66, 67, 68, 69, 70, 71, 72, 73, 74, 75, 76, 77, 78, 79, 80, 81, 82, 83, 84, 85, 86, 87, 88, 89, 90, 91, 92, 93, 94, 95, 96, 97, 98, 99, 100, 101, 102, 103, 104, 105, 106, 107, 108, 109, 110, 111, 112, 113, 114, 115, 116, 117, 118, 119, 120, 121, 122, 123, 124, 125, 126, 127, 128, 129, 130, 131, 132, 133, 134, 135, 136, 137, 138, 139, 140, 141, 142, 143, 144, 145, 146, 147, 148, 149, 150, 151, 152, 153, 154, 155, 156, 157, 158, 159, 160, 161, 162, 163, 164],
      "AcquisitionTime": ["164143.882500", "164145.882500", "164147.882500", "164149.882500", "164151.882500", "164153.882500", "164155.882500", "164157.882500", "164159.882500", "164201.882500", "164203.882500", "164205.882500", "164207.882500", "164209.882500", "164211.882500", "164213.882500", "164215.882500", "164217.882500", "164219.882500", "164221.882500", "164223.882500", "164225.882500", "164227.882500", "164229.882500", "164231.882500", "164233.882500", "164235.882500", "164237.882500", "164239.882500", "164241.882500", "164243.882500", "164245.882500", "164247.882500", "164249.882500", "164251.882500", "164253.882500", "164255.882500", "164257.882500", "164259.882500", "164301.882500", "164303.882500", "164305.882500", "164307.882500", "164309.882500", "164311.882500", "164313.882500", "164315.882500", "164317.882500", "164319.882500", "164321.882500", "164323.882500", "164325.882500", "164327.882500", "164329.882500", "164331.882500", "164333.882500", "164335.882500", "164337.882500", "164339.882500", "164341.882500", "164343.882500", "164345.882500", "164347.882500", "164349.882500", "164351.882500", "164353.882500", "164355.882500", "164357.882500", "164359.882500", "164401.882500", "164403.882500", "164405.882500", "164407.882500", "164409.882500", "164411.882500", "164413.882500", "164415.882500", "164417.882500", "164419.882500", "164421.882500", "164423.882500", "164425.882500", "164427.882500", "164429.882500", "164431.882500", "164433.882500", "164435.882500", "164437.882500", "164439.882500", "164441.882500", "164443.882500", "164445.882500", "164447.882500", "164449.882500", "164451.882500", "164453.882500", "164455.882500", "164457.882500", "164459.882500", "164501.882500", "164503.882500", "164505.882500", "164507.882500", "164509.882500", "164511.882500", "164513.882500", "164515.882500", "164517.882500", "164519.882500", "164521.882500", "164523.882500", "164525.882500", "164527.882500", "164529.882500", "164531.882500", "164533.882500", "164535.882500", "164537.882500", "164539.882500", "164541.885000", "164543.885000", "164545.885000", "164547.885000", "164549.885000", "164551.885000", "164553.885000", "164555.885000", "164557.885000", "164559.885000", "164601.885000", "164603.885000", "164605.885000", "164607.885000", "164609.885000", "164611.885000", "164613.885000", "164615.885000", "164617.885000", "164619.885000", "164621.885000", "164623.885000", "164625.885000", "164627.885000", "164629.885000", "164631.885000", "164633.885000", "164635.885000", "164637.885000", "164639.885000", "164641.885000", "164643.885000", "164645.885000", "164647.885000", "164649.885000", "164651.885000", "164653.885000", "164655.885000", "164657.885000", "164659.885000", "164701.885000", "164703.885000", "164705.885000", "164707.885000", "164709.885000"],
      "ContentTime": ["164204.297000", "164205.289000", "164206.290000", "164207.289000", "164207.293000", "164208.288000", "164209.290000", "164210.288000", "164211.290000", "164212.289000", "164213.289000", "164214.291000", "164214.296000", "164215.790000", "164217.791000", "164219.790000", "164221.790000", "164223.790000", "164225.790000", "164227.790000", "164229.790000", "164231.792000", "164233.792000", "164235.791000", "164237.790000", "164239.790000", "164241.790000", "164243.790000", "164245.790000", "164247.790000", "164249.791000", "164251.791000", "164253.790000", "164255.790000", "164257.791000", "164259.790000", "164301.790000", "164303.790000", "164305.790000", "164307.791000", "164309.791000", "164311.791000", "164313.790000", "164315.790000", "164317.790000", "164319.789000", "164321.791000", "164323.789000", "164325.790000", "164327.791000", "164329.790000", "164331.790000", "164333.790000", "164335.790000", "164337.790000", "164339.790000", "164341.791000", "164343.791000", "164345.791000", "164347.790000", "164349.791000", "164351.790000", "164353.790000", "164355.790000", "164357.790000", "164359.792000", "164401.791000", "164403.790000", "164405.791000", "164407.790000", "164409.790000", "164411.790000", "164413.790000", "164415.790000", "164417.791000", "164419.791000", "164421.791000", "164423.789000", "164425.790000", "164427.790000", "164429.790000", "164431.790000", "164433.791000", "164435.791000", "164437.791000", "164439.791000", "164441.790000", "164443.790000", "164445.790000", "164447.791000", "164449.791000", "164451.791000", "164453.792000", "164455.790000", "164457.790000", "164459.790000", "164501.790000", "164503.791000", "164505.790000", "164507.790000", "164509.791000", "164511.791000", "164513.790000", "164515.790000", "164517.790000", "164519.791000", "164521.790000", "164523.790000", "164525.790000", "164527.791000", "164529.799000", "164531.790000", "164533.790000", "164535.790000", "164537.790000", "164539.791000", "164541.791000", "164543.791000", "164545.791000", "164547.791000", "164549.790000", "164551.790000", "164553.790000", "164555.791000", "164557.790000", "164559.790000", "164601.791000", "164603.791000", "164605.791000", "164607.791000", "164609.790000", "164611.790000", "164613.790000", "164615.790000", "164617.790000", "164619.792000", "164621.791000", "164623.790000", "164625.790000", "164627.790000", "164629.790000", "164631.790000", "164633.790000", "164635.790000", "164637.791000", "164639.791000", "164641.790000", "164643.790000", "164645.790000", "164647.790000", "164649.790000", "164651.791000", "164653.791000", "164655.791000", "164657.791000", "164659.791000", "164701.790000", "164703.790000", "164705.790000", "164707.790000", "164709.790000", "164711.792000", "164713.791000", "164715.543000"],
      "InstanceCreationTime": ["164204.297000", "164205.289000", "164206.290000", "164207.289000", "164207.293000", "164208.288000", "164209.290000", "164210.288000", "164211.290000", "164212.289000", "164213.289000", "164214.291000", "164214.296000", "164215.790000", "164217.791000", "164219.790000", "164221.790000", "164223.790000", "164225.790000", "164227.790000", "164229.790000", "164231.792000", "164233.792000", "164235.791000", "164237.790000", "164239.790000", "164241.790000", "164243.790000", "164245.790000", "164247.790000", "164249.791000", "164251.791000", "164253.790000", "164255.790000", "164257.791000", "164259.790000", "164301.790000", "164303.790000", "164305.790000", "164307.791000", "164309.791000", "164311.791000", "164313.790000", "164315.790000", "164317.790000", "164319.789000", "164321.791000", "164323.789000", "164325.790000", "164327.791000", "164329.790000", "164331.790000", "164333.790000", "164335.790000", "164337.790000", "164339.790000", "164341.791000", "164343.791000", "164345.791000", "164347.790000", "164349.791000", "164351.790000", "164353.790000", "164355.790000", "164357.790000", "164359.792000", "164401.791000", "164403.790000", "164405.791000", "164407.790000", "164409.790000", "164411.790000", "164413.790000", "164415.790000", "164417.791000", "164419.791000", "164421.791000", "164423.789000", "164425.790000", "164427.790000", "164429.790000", "164431.790000", "164433.791000", "164435.791000", "164437.791000", "164439.791000", "164441.790000", "164443.790000", "164445.790000", "164447.791000", "164449.791000", "164451.791000", "164453.792000", "164455.790000", "164457.790000", "164459.790000", "164501.790000", "164503.791000", "164505.790000", "164507.790000", "164509.791000", "164511.791000", "164513.790000", "164515.790000", "164517.790000", "164519.791000", "164521.790000", "164523.790000", "164525.790000", "164527.791000", "164529.799000", "164531.790000", "164533.790000", "164535.790000", "164537.790000", "164539.791000", "164541.791000", "164543.791000", "164545.791000", "164547.791000", "164549.790000", "164551.790000", "164553.790000", "164555.791000", "164557.790000", "164559.790000", "164601.791000", "164603.791000", "164605.791000", "164607.791000", "164609.790000", "164611.790000", "164613.790000", "164615.790000", "164617.790000", "164619.792000", "164621.791000", "164623.790000", "164625.790000", "164627.790000", "164629.790000", "164631.790000", "164633.790000", "164635.790000", "164637.791000", "164639.791000", "164641.790000", "164643.790000", "164645.790000", "164647.790000", "164649.790000", "164651.791000", "164653.791000", "164655.791000", "164657.791000", "164659.791000", "164701.790000", "164703.790000", "164705.790000", "164707.790000", "164709.790000", "164711.792000", "164713.791000", "164715.543000"],
      "InstanceNumber": [1, 2, 3, 4, 5, 6, 7, 8, 9, 10, 11, 12, 13, 14, 15, 16, 17, 18, 19, 20, 21, 22, 23, 24, 25, 26, 27, 28, 29, 30, 31, 32, 33, 34, 35, 36, 37, 38, 39, 40, 41, 42, 43, 44, 45, 46, 47, 48, 49, 50, 51, 52, 53, 54, 55, 56, 57, 58, 59, 60, 61, 62, 63, 64, 65, 66, 67, 68, 69, 70, 71, 72, 73, 74, 75, 76, 77, 78, 79, 80, 81, 82, 83, 84, 85, 86, 87, 88, 89, 90, 91, 92, 93, 94, 95, 96, 97, 98, 99, 100, 101, 102, 103, 104, 105, 106, 107, 108, 109, 110, 111, 112, 113, 114, 115, 116, 117, 118, 119, 120, 121, 122, 123, 124, 125, 126, 127, 128, 129, 130, 131, 132, 133, 134, 135, 136, 137, 138, 139, 140, 141, 142, 143, 144, 145, 146, 147, 148, 149, 150, 151, 152, 153, 154, 155, 156, 157, 158, 159, 160, 161, 162, 163, 164],
      "WindowCenter": [17000.0, 16982.0, 16985.0, 17000.0, 16977.0, 16961.0, 16959.0, 16936.0, 16953.0, 16951.0, 16947.0, 16956.0, 16936.0, 16938.0, 16945.0, 16923.0, 16928.0, 16922.0, 16928.0, 16940.0, 16972.0, 16957.0, 16950.0, 16954.0, 16958.0, 16954.0, 16958.0, 16964.0, 16971.0, 16962.0, 16949.0, 16960.0, 16945.0, 16946.0, 16963.0, 16969.0, 16947.0, 16926.0, 16954.0, 16946.0, 16925.0, 16919.0, 16925.0, 16936.0, 16953.0, 16955.0, 16964.0, 16937.0, 16917.0, 16941.0, 16963.0, 16970.0, 16942.0, 16911.0, 16904.0, 16923.0, 16918.0, 16918.0, 16915.0, 16919.0, 16945.0, 16946.0, 16934.0, 16917.0, 16945.0, 16964.0, 16963.0, 16942.0, 16948.0, 16936.0, 16927.0, 16914.0, 16925.0, 16907.0, 16917.0, 16937.0, 16926.0, 16927.0, 16923.0, 16934.0, 16934.0, 16946.0, 16950.0, 16957.0, 16939.0, 16920.0, 16951.0, 16969.0, 16962.0, 16944.0, 16925.0, 16920.0, 16933.0, 16925.0, 16931.0, 16945.0, 16944.0, 16954.0, 16946.0, 16961.0, 16943.0, 16948.0, 16999.0, 16992.0, 16963.0, 16939.0, 16933.0, 16926.0, 16921.0, 16919.0, 16924.0, 16918.0, 16938.0, 16964.0, 16974.0, 16944.0, 16935.0, 16941.0, 16959.0, 16983.0, 16949.0, 16936.0, 16960.0, 16982.0, 16942.0, 16935.0, 16920.0, 16921.0, 16921.0, 16917.0, 16937.0, 16946.0, 16934.0, 16948.0, 16965.0, 16984.0, 16959.0, 16941.0, 16946.0, 16952.0, 16974.0, 16988.0, 16979.0, 16940.0, 16934.0, 16932.0, 16923.0, 16922.0, 16939.0, 16936.0, 16922.0, 16934.0, 16959.0, 16993.0, 16977.0, 16933.0, 16926.0, 16942.0, 16941.0, 16939.0, 16927.0, 16928.0, 16923.0, 16930.0],
      "WindowWidth": [46328.0, 46290.0, 46368.0, 46406.0, 46281.0, 46154.0, 46086.0, 46097.0, 46096.0, 46093.0, 46080.0, 46075.0, 46086.0, 46112.0, 46077.0, 46034.0, 45987.0, 45970.0, 45962.0, 46010.0, 46063.0, 46116.0, 46071.0, 46037.0, 46027.0, 46077.0, 46117.0, 46175.0, 46181.0, 46123.0, 46149.0, 46131.0, 46119.0, 46156.0, 46224.0, 46189.0, 46038.0, 45971.0, 45946.0, 45942.0, 45948.0, 45879.0, 45922.0, 46009.0, 46025.0, 46066.0, 46098.0, 46024.0, 46007.0, 46105.0, 46251.0, 46215.0, 46073.0, 45945.0, 45941.0, 45958.0, 45942.0, 45905.0, 45916.0, 46024.0, 46109.0, 46085.0, 46034.0, 46046.0, 46134.0, 46253.0, 46211.0, 46063.0, 45978.0, 45995.0, 46000.0, 45988.0, 45957.0, 45968.0, 45992.0, 45998.0, 45963.0, 45964.0, 46000.0, 46099.0, 46072.0, 46056.0, 46161.0, 46155.0, 46036.0, 46072.0, 46137.0, 46151.0, 46052.0, 45969.0, 45878.0, 45850.0, 45862.0, 45871.0, 45968.0, 46030.0, 46016.0, 46063.0, 46068.0, 45963.0, 45963.0, 46162.0, 46277.0, 46167.0, 46025.0, 45917.0, 45862.0, 45856.0, 45840.0, 45827.0, 45869.0, 45917.0, 45999.0, 46123.0, 46117.0, 46002.0, 45943.0, 45987.0, 46108.0, 46036.0, 45994.0, 46034.0, 46081.0, 46098.0, 46039.0, 45928.0, 45902.0, 45866.0, 45880.0, 45878.0, 45984.0, 46030.0, 46048.0, 46124.0, 46242.0, 46203.0, 46053.0, 45972.0, 45916.0, 46024.0, 46171.0, 46154.0, 46028.0, 45944.0, 45929.0, 45940.0, 45894.0, 45906.0, 45908.0, 45920.0, 45948.0, 46037.0, 46149.0, 46213.0, 46080.0, 45991.0, 45974.0, 45974.0, 45999.0, 46010.0, 46000.0, 45973.0, 45944.0, 45924.0]
    },
    "slices": {}
  }
}