{
  "AcquisitionMatrixPE": 116,
  "AcquisitionNumber": 1,
  "AcquisitionTime": "14:39:56.352500",
  "BandwidthPerPixelPhaseEncode": 18.539,
  "BaseResolution": 116,
  "BodyPartExamined": "HEAD",
  "ConsistencyInfo": "N4_VD13D_LATEST_20130810",
  "ConversionSoftware": "dcm2niix",
  "ConversionSoftwareVersion": "v1.0.20190410  (JP2:OpenJPEG) (JP-LS:CharLS) GCC5.5.0",
  "DerivedVendorReportedEchoSpacing": 0.000930006,
  "DeviceSerialNumber": "66014",
  "DwellTime": 3e-06,
  "EchoTime": 0.03,
  "EchoTrainLength": 50,
  "EffectiveEchoSpacing": 0.000465003,
  "FlipAngle": 81,
  "ImageComments": "Unaliased_MB3_PE4",
  "ImageOrientationPatientDICOM": [0.999936, -0.0107259, 0.00347174, 0.0104717, 0.997737, 0.0664111],
  "ImageType": [
    "ORIGINAL",
    "PRIMARY",
    "M",
    "MB",
    "ND",
    "MOSAIC"
],
  "ImagingFrequency": 123.261,
  "InPlanePhaseEncodingDirectionDICOM": "COL",
  "InstitutionAddress": "Yiheyuan_Road_5_Beijing_Haidian_CN_100871",
  "InstitutionName": "Peking_Univeristy",
  "InstitutionalDepartmentName": "Department",
  "MRAcquisitionType": "2D",
  "MagneticFieldStrength": 3,
  "Manufacturer": "Siemens",
  "ManufacturersModelName": "Prisma",
  "Modality": "MR",
  "MultibandAccelerationFactor": 3,
  "ParallelReductionFactorInPlane": 2,
  "PartialFourier": 0.875,
  "PatientPosition": "HFS",
  "PercentPhaseFOV": 100,
  "PhaseEncodingDirection": "j-",
  "PhaseEncodingSteps": 101,
  "PhaseResolution": 1,
  "PixelBandwidth": 1435,
  "ProcedureStepDescription": "Research_Projects_64CH",
  "ProtocolName": "mbep2d_bold_MB3_test2",
  "PulseSequenceDetails": "%CustomerSeq%_cmrr_mbep2d_bold",
  "ReceiveCoilActiveElements": "HC1-7",
  "ReceiveCoilName": "HeadNeck_64",
  "ReconMatrixPE": 116,
  "RefLinesPE": 44,
  "RepetitionTime": 2,
  "SAR": 0.0573477,
  "ScanOptions": "PFP_FS",
  "ScanningSequence": "EP",
  "SequenceName": "epfid2d1_116",
  "SequenceVariant": "SK_SS",
  "SeriesDescription": "mbep2d_bold_MB3_test2",
  "SeriesNumber": 7,
  "ShimSetting": [-3450, -2093, -1922, 515, -26, -272, 6, 29],
  "SliceThickness": 1.9,
  "SliceTiming": [0, 0.9075, 1.815, 0.7425, 1.65, 0.5775, 1.485, 0.4125, 1.32, 0.2475, 1.155, 0.0825, 0.99, 1.8975, 0.825, 1.7325, 0.66, 1.5675, 0.495, 1.4025, 0.33, 1.2375, 0.165, 1.0725, 0, 0.9075, 1.815, 0.7425, 1.65, 0.5775, 1.485, 0.4125, 1.32, 0.2475, 1.155, 0.0825, 0.99, 1.8975, 0.825, 1.7325, 0.66, 1.5675, 0.495, 1.4025, 0.33, 1.2375, 0.165, 1.0725, 0, 0.9075, 1.815, 0.7425, 1.65, 0.5775, 1.485, 0.4125, 1.32, 0.2475, 1.155, 0.0825, 0.99, 1.8975, 0.825, 1.7325, 0.66, 1.5675, 0.495, 1.4025, 0.33, 1.2375, 0.165, 1.0725],
  "SoftwareVersions": "syngo_MR_D13D",
  "SpacingBetweenSlices": 1.9,
  "StationName": "AWP66014",
  "TaskName": "retrieval",
  "TotalReadoutTime": 0.0534753,
  "TxRefAmp": 217.464,
  "WipMemBlock": "5b66c29a-a446-42ed-8672-e6d3b76f83ea||Sequence: vd13d/master r/0735857; Nov 19 2014 09:21:40 by eja",
  "dcmmeta_affine": [
    [-1.8964312076568604, 0.01986015774309635, 0.007934791035950184, 108.36717224121094],
    [0.02034219540655613, 1.8922605514526367, 0.12610407173633575, -100.240478515625],
    [0.006584339775145054, -0.12595215439796448, 1.8957940340042114, -55.47557067871094],
    [0.0, 0.0, 0.0, 1.0]
],
  "dcmmeta_reorient_transform": [
    [0.0, -1.0, 0.0, 115.0],
    [1.0, 0.0, 0.0, 0.0],
    [0.0, 0.0, 1.0, 0.0],
    [0.0, 0.0, 0.0, 1.0]
],
  "dcmmeta_shape": [116, 116, 72, 289],
  "dcmmeta_slice_dim": 2,
  "dcmmeta_version": 0.6,
  "global": {
    "const": {
      "AcquisitionMatrix": [116, 0, 0, 116],
      "AngioFlag": "N",
      "BitsAllocated": 16,
      "BitsStored": 16,
      "BodyPartExamined": "HEAD",
      "Columns": 1044,
      "EchoNumbers": 1,
      "EchoTime": 30.0,
      "EchoTrainLength": 50,
      "FlipAngle": 81.0,
      "HighBit": 15,
      "ImageOrientationPatient": [0.99993644918269, -0.0107258844543, 0.00347174287409, 0.01047171907864, 0.9977373922708, 0.0664111373506],
      "ImagePositionPatient": [-999.81028226545, -985.93961549074, -131.45700460584],
      "ImageType": [
        "ORIGINAL",
        "PRIMARY",
        "M",
        "MB",
        "ND",
        "MOSAIC"
],
      "ImagedNucleus": "1H",
      "ImagingFrequency": 123.260567,
      "InPlanePhaseEncodingDirection": "COL",
      "LargestImagePixelValue": 65535,
      "MRAcquisitionType": "2D",
      "MagneticFieldStrength": 3.0,
      "Manufacturer": "SIEMENS",
      "ManufacturerModelName": "Prisma",
      "Modality": "MR",
      "NumberOfAverages": 1.0,
      "NumberOfPhaseEncodingSteps": 101,
      "PercentPhaseFieldOfView": 100.0,
      "PercentSampling": 100.0,
      "PerformedProcedureStepStartTime": "141605.763000",
      "PhotometricInterpretation": "MONOCHROME2",
      "PixelBandwidth": 1435.0,
      "PixelRepresentation": 0,
      "PixelSpacing": [1.8965517282486, 1.8965517282486],
      "ProtocolName": "mbep2d_bold_MB3_test2",
      "RepetitionTime": 2000.0,
      "Rows": 1044,
      "SAR": 0.05734771166261,
      "SamplesPerPixel": 1,
      "ScanOptions": [
        "PFP",
        "FS"
],
      "ScanningSequence": "EP",
      "SequenceName": "epfid2d1_116",
      "SequenceVariant": [
        "SK",
        "SS"
],
      "SeriesDescription": "mbep2d_bold_MB3_test2",
      "SeriesNumber": 7,
      "SeriesTime": "144012.092000",
      "SliceLocation": -61.553219018881,
      "SliceThickness": 1.8999999761581,
      "SmallestImagePixelValue": 0,
      "SoftwareVersions": "syngo MR D13D",
      "SpacingBetweenSlices": 1.9000000436972,
      "SpecificCharacterSet": "ISO_IR 100",
      "StudyID": "1",
      "StudyTime": "141605.717000",
      "TimeOfLastCalibration": ["123723.000000", "123723.000000"],
      "TransmitCoilName": "Body",
      "VariableFlipAngleFlag": "N",
      "WindowCenterWidthExplanation": "Algo1",
      "dBdt": 0.0},
    "slices": {}
  },
  "time": {
    "samples": {
      "AcquisitionNumber": [1, 2, 3, 4, 5, 6, 7, 8, 9, 10, 11, 12, 13, 14, 15, 16, 17, 18, 19, 20, 21, 22, 23, 24, 25, 26, 27, 28, 29, 30, 31, 32, 33, 34, 35, 36, 37, 38, 39, 40, 41, 42, 43, 44, 45, 46, 47, 48, 49, 50, 51, 52, 53, 54, 55, 56, 57, 58, 59, 60, 61, 62, 63, 64, 65, 66, 67, 68, 69, 70, 71, 72, 73, 74, 75, 76, 77, 78, 79, 80, 81, 82, 83, 84, 85, 86, 87, 88, 89, 90, 91, 92, 93, 94, 95, 96, 97, 98, 99, 100, 101, 102, 103, 104, 105, 106, 107, 108, 109, 110, 111, 112, 113, 114, 115, 116, 117, 118, 119, 120, 121, 122, 123, 124, 125, 126, 127, 128, 129, 130, 131, 132, 133, 134, 135, 136, 137, 138, 139, 140, 141, 142, 143, 144, 145, 146, 147, 148, 149, 150, 151, 152, 153, 154, 155, 156, 157, 158, 159, 160, 161, 162, 163, 164, 165, 166, 167, 168, 169, 170, 171, 172, 173, 174, 175, 176, 177, 178, 179, 180, 181, 182, 183, 184, 185, 186, 187, 188, 189, 190, 191, 192, 193, 194, 195, 196, 197, 198, 199, 200, 201, 202, 203, 204, 205, 206, 207, 208, 209, 210, 211, 212, 213, 214, 215, 216, 217, 218, 219, 220, 221, 222, 223, 224, 225, 226, 227, 228, 229, 230, 231, 232, 233, 234, 235, 236, 237, 238, 239, 240, 241, 242, 243, 244, 245, 246, 247, 248, 249, 250, 251, 252, 253, 254, 255, 256, 257, 258, 259, 260, 261, 262, 263, 264, 265, 266, 267, 268, 269, 270, 271, 272, 273, 274, 275, 276, 277, 278, 279, 280, 281, 282, 283, 284, 285, 286, 287, 288, 289],
      "AcquisitionTime": ["143956.352500", "143958.352500", "144000.352500", "144002.352500", "144004.352500", "144006.352500", "144008.352500", "144010.352500", "144012.352500", "144014.352500", "144016.352500", "144018.352500", "144020.352500", "144022.352500", "144024.352500", "144026.352500", "144028.352500", "144030.352500", "144032.352500", "144034.352500", "144036.352500", "144038.352500", "144040.352500", "144042.352500", "144044.352500", "144046.352500", "144048.352500", "144050.352500", "144052.352500", "144054.352500", "144056.352500", "144058.352500", "144100.352500", "144102.352500", "144104.352500", "144106.352500", "144108.352500", "144110.352500", "144112.352500", "144114.352500", "144116.352500", "144118.352500", "144120.352500", "144122.352500", "144124.352500", "144126.352500", "144128.352500", "144130.352500", "144132.352500", "144134.352500", "144136.352500", "144138.352500", "144140.352500", "144142.352500", "144144.352500", "144146.352500", "144148.352500", "144150.352500", "144152.352500", "144154.352500", "144156.352500", "144158.352500", "144200.352500", "144202.352500", "144204.352500", "144206.352500", "144208.352500", "144210.352500", "144212.352500", "144214.352500", "144216.352500", "144218.352500", "144220.352500", "144222.352500", "144224.352500", "144226.352500", "144228.352500", "144230.352500", "144232.352500", "144234.352500", "144236.352500", "144238.352500", "144240.352500", "144242.352500", "144244.352500", "144246.352500", "144248.352500", "144250.352500", "144252.352500", "144254.352500", "144256.352500", "144258.352500", "144300.352500", "144302.352500", "144304.352500", "144306.352500", "144308.352500", "144310.352500", "144312.352500", "144314.352500", "144316.352500", "144318.352500", "144320.352500", "144322.352500", "144324.352500", "144326.352500", "144328.352500", "144330.352500", "144332.352500", "144334.352500", "144336.352500", "144338.352500", "144340.352500", "144342.352500", "144344.352500", "144346.352500", "144348.352500", "144350.352500", "144352.352500", "144354.352500", "144356.352500", "144358.352500", "144400.352500", "144402.352500", "144404.352500", "144406.352500", "144408.352500", "144410.352500", "144412.352500", "144414.352500", "144416.352500", "144418.352500", "144420.352500", "144422.352500", "144424.352500", "144426.352500", "144428.352500", "144430.352500", "144432.352500", "144434.352500", "144436.352500", "144438.352500", "144440.352500", "144442.352500", "144444.352500", "144446.352500", "144448.352500", "144450.352500", "144452.352500", "144454.352500", "144456.352500", "144458.352500", "144500.352500", "144502.352500", "144504.352500", "144506.352500", "144508.352500", "144510.352500", "144512.352500", "144514.352500", "144516.352500", "144518.352500", "144520.352500", "144522.352500", "144524.352500", "144526.352500", "144528.352500", "144530.352500", "144532.352500", "144534.352500", "144536.352500", "144538.352500", "144540.352500", "144542.352500", "144544.352500", "144546.352500", "144548.352500", "144550.352500", "144552.352500", "144554.352500", "144556.352500", "144558.352500", "144600.352500", "144602.352500", "144604.352500", "144606.352500", "144608.352500", "144610.352500", "144612.352500", "144614.352500", "144616.352500", "144618.352500", "144620.352500", "144622.352500", "144624.352500", "144626.352500", "144628.352500", "144630.352500", "144632.352500", "144634.352500", "144636.352500", "144638.352500", "144640.352500", "144642.352500", "144644.352500", "144646.352500", "144648.352500", "144650.352500", "144652.352500", "144654.352500", "144656.352500", "144658.352500", "144700.352500", "144702.352500", "144704.352500", "144706.352500", "144708.352500", "144710.352500", "144712.352500", "144714.352500", "144716.352500", "144718.352500", "144720.352500", "144722.352500", "144724.352500", "144726.352500", "144728.352500", "144730.355000", "144732.355000", "144734.355000", "144736.355000", "144738.355000", "144740.355000", "144742.355000", "144744.355000", "144746.355000", "144748.355000", "144750.355000", "144752.355000", "144754.355000", "144756.355000", "144758.355000", "144800.355000", "144802.355000", "144804.355000", "144806.355000", "144808.355000", "144810.355000", "144812.355000", "144814.355000", "144816.355000", "144818.355000", "144820.355000", "144822.355000", "144824.355000", "144826.355000", "144828.355000", "144830.355000", "144832.355000", "144834.355000", "144836.355000", "144838.355000", "144840.355000", "144842.355000", "144844.355000", "144846.355000", "144848.355000", "144850.355000", "144852.355000", "144854.355000", "144856.355000", "144858.355000", "144900.355000", "144902.355000", "144904.355000", "144906.355000", "144908.355000", "144910.355000", "144912.355000", "144914.355000", "144916.355000", "144918.355000", "144920.355000", "144922.355000", "144924.355000", "144926.355000", "144928.355000", "144930.355000", "144932.355000"],
      "ContentTime": ["144012.097000", "144013.090000", "144013.094000", "144014.089000", "144015.091000", "144016.091000", "144016.095000", "144017.091000", "144018.090000", "144019.091000", "144020.091000", "144021.591000", "144023.592000", "144025.592000", "144027.592000", "144029.590000", "144031.591000", "144033.591000", "144035.591000", "144037.591000", "144039.592000", "144041.592000", "144043.591000", "144045.592000", "144047.591000", "144049.591000", "144051.591000", "144053.591000", "144055.591000", "144057.592000", "144059.592000", "144101.592000", "144103.592000", "144105.591000", "144107.591000", "144109.591000", "144111.591000", "144113.591000", "144115.592000", "144117.592000", "144119.592000", "144121.591000", "144123.591000", "144125.591000", "144127.591000", "144129.592000", "144131.591000", "144133.592000", "144135.592000", "144137.592000", "144139.591000", "144141.590000", "144143.591000", "144145.591000", "144147.591000", "144149.592000", "144151.592000", "144153.592000", "144155.591000", "144157.591000", "144159.591000", "144201.591000", "144203.591000", "144205.591000", "144207.592000", "144209.592000", "144211.591000", "144213.592000", "144215.591000", "144217.591000", "144219.591000", "144221.591000", "144223.591000", "144225.591000", "144227.592000", "144229.593000", "144231.591000", "144233.591000", "144235.591000", "144237.591000", "144239.591000", "144241.592000", "144243.592000", "144245.592000", "144247.592000", "144249.591000", "144251.591000", "144253.591000", "144255.591000", "144257.591000", "144259.592000", "144301.590000", "144303.592000", "144305.592000", "144307.591000", "144309.591000", "144311.591000", "144313.591000", "144315.591000", "144317.592000", "144319.592000", "144321.592000", "144323.592000", "144325.591000", "144327.591000", "144329.591000", "144331.591000", "144333.592000", "144335.592000", "144337.592000", "144339.592000", "144341.591000", "144343.591000", "144345.591000", "144347.591000", "144349.591000", "144351.592000", "144353.592000", "144355.592000", "144357.592000", "144359.591000", "144401.591000", "144403.591000", "144405.591000", "144407.591000", "144409.592000", "144411.592000", "144413.592000", "144415.592000", "144417.591000", "144419.591000", "144421.591000", "144423.604000", "144425.591000", "144427.592000", "144429.592000", "144431.592000", "144433.592000", "144435.589000", "144437.591000", "144439.591000", "144441.591000", "144443.592000", "144445.592000", "144447.593000", "144449.596000", "144451.594000", "144453.592000", "144455.591000", "144457.591000", "144459.591000", "144501.592000", "144503.592000", "144505.592000", "144507.591000", "144509.591000", "144511.591000", "144513.591000", "144515.591000", "144517.591000", "144519.592000", "144521.593000", "144523.592000", "144525.592000", "144527.591000", "144529.591000", "144531.591000", "144533.591000", "144535.591000", "144537.592000", "144539.592000", "144541.592000", "144543.591000", "144545.591000", "144547.591000", "144549.591000", "144551.591000", "144553.592000", "144555.592000", "144557.592000", "144559.592000", "144601.591000", "144603.591000", "144605.591000", "144607.591000", "144609.592000", "144611.592000", "144613.592000", "144615.592000", "144617.592000", "144619.591000", "144621.591000", "144623.590000", "144625.591000", "144627.591000", "144629.592000", "144631.592000", "144633.592000", "144635.592000", "144637.591000", "144639.591000", "144641.591000", "144643.591000", "144645.591000", "144647.592000", "144649.592000", "144651.592000", "144653.592000", "144655.591000", "144657.591000", "144659.591000", "144701.591000", "144703.592000", "144705.592000", "144707.592000", "144709.592000", "144711.591000", "144713.591000", "144715.591000", "144717.591000", "144719.591000", "144721.592000", "144723.592000", "144725.592000", "144727.592000", "144729.591000", "144731.592000", "144733.589000", "144735.591000", "144737.591000", "144739.592000", "144741.592000", "144743.592000", "144745.592000", "144747.591000", "144749.592000", "144751.591000", "144753.591000", "144755.591000", "144757.592000", "144759.592000", "144801.592000", "144803.590000", "144805.591000", "144807.592000", "144809.591000", "144811.591000", "144813.592000", "144815.592000", "144817.593000", "144819.592000", "144821.591000", "144823.591000", "144825.590000", "144827.591000", "144829.591000", "144831.593000", "144833.592000", "144835.592000", "144837.590000", "144839.590000", "144841.590000", "144843.591000", "144845.591000", "144847.590000", "144849.592000", "144851.593000", "144853.591000", "144855.592000", "144857.591000", "144859.591000", "144901.591000", "144903.591000", "144905.590000", "144907.592000", "144909.592000", "144911.592000", "144913.591000", "144915.591000", "144917.589000", "144919.591000", "144921.590000", "144923.591000", "144925.592000", "144927.592000", "144929.592000", "144931.591000", "144933.590000", "144935.104000"],
      "InstanceCreationTime": ["144012.097000", "144013.090000", "144013.094000", "144014.089000", "144015.091000", "144016.091000", "144016.095000", "144017.091000", "144018.090000", "144019.091000", "144020.091000", "144021.591000", "144023.592000", "144025.592000", "144027.592000", "144029.590000", "144031.591000", "144033.591000", "144035.591000", "144037.591000", "144039.592000", "144041.592000", "144043.591000", "144045.592000", "144047.591000", "144049.591000", "144051.591000", "144053.591000", "144055.591000", "144057.592000", "144059.592000", "144101.592000", "144103.592000", "144105.591000", "144107.591000", "144109.591000", "144111.591000", "144113.591000", "144115.592000", "144117.592000", "144119.592000", "144121.591000", "144123.591000", "144125.591000", "144127.591000", "144129.592000", "144131.591000", "144133.592000", "144135.592000", "144137.592000", "144139.591000", "144141.590000", "144143.591000", "144145.591000", "144147.591000", "144149.592000", "144151.592000", "144153.592000", "144155.591000", "144157.591000", "144159.591000", "144201.591000", "144203.591000", "144205.591000", "144207.592000", "144209.592000", "144211.591000", "144213.592000", "144215.591000", "144217.591000", "144219.591000", "144221.591000", "144223.591000", "144225.591000", "144227.592000", "144229.593000", "144231.591000", "144233.591000", "144235.591000", "144237.591000", "144239.591000", "144241.592000", "144243.592000", "144245.592000", "144247.592000", "144249.591000", "144251.591000", "144253.591000", "144255.591000", "144257.591000", "144259.592000", "144301.590000", "144303.592000", "144305.592000", "144307.591000", "144309.591000", "144311.591000", "144313.591000", "144315.591000", "144317.592000", "144319.592000", "144321.592000", "144323.592000", "144325.591000", "144327.591000", "144329.591000", "144331.591000", "144333.592000", "144335.592000", "144337.592000", "144339.592000", "144341.591000", "144343.591000", "144345.591000", "144347.591000", "144349.591000", "144351.592000", "144353.592000", "144355.592000", "144357.592000", "144359.591000", "144401.591000", "144403.591000", "144405.591000", "144407.591000", "144409.592000", "144411.592000", "144413.592000", "144415.592000", "144417.591000", "144419.591000", "144421.591000", "144423.604000", "144425.591000", "144427.592000", "144429.592000", "144431.592000", "144433.592000", "144435.589000", "144437.591000", "144439.591000", "144441.591000", "144443.592000", "144445.592000", "144447.593000", "144449.596000", "144451.594000", "144453.592000", "144455.591000", "144457.591000", "144459.591000", "144501.592000", "144503.592000", "144505.592000", "144507.591000", "144509.591000", "144511.591000", "144513.591000", "144515.591000", "144517.591000", "144519.592000", "144521.593000", "144523.592000", "144525.592000", "144527.591000", "144529.591000", "144531.591000", "144533.591000", "144535.591000", "144537.592000", "144539.592000", "144541.592000", "144543.591000", "144545.591000", "144547.591000", "144549.591000", "144551.591000", "144553.592000", "144555.592000", "144557.592000", "144559.592000", "144601.591000", "144603.591000", "144605.591000", "144607.591000", "144609.592000", "144611.592000", "144613.592000", "144615.592000", "144617.592000", "144619.591000", "144621.591000", "144623.590000", "144625.591000", "144627.591000", "144629.592000", "144631.592000", "144633.592000", "144635.592000", "144637.591000", "144639.591000", "144641.591000", "144643.591000", "144645.591000", "144647.592000", "144649.592000", "144651.592000", "144653.592000", "144655.591000", "144657.591000", "144659.591000", "144701.591000", "144703.592000", "144705.592000", "144707.592000", "144709.592000", "144711.591000", "144713.591000", "144715.591000", "144717.591000", "144719.591000", "144721.592000", "144723.592000", "144725.592000", "144727.592000", "144729.591000", "144731.592000", "144733.589000", "144735.591000", "144737.591000", "144739.592000", "144741.592000", "144743.592000", "144745.592000", "144747.591000", "144749.592000", "144751.591000", "144753.591000", "144755.591000", "144757.592000", "144759.592000", "144801.592000", "144803.590000", "144805.591000", "144807.592000", "144809.591000", "144811.591000", "144813.592000", "144815.592000", "144817.593000", "144819.592000", "144821.591000", "144823.591000", "144825.590000", "144827.591000", "144829.591000", "144831.593000", "144833.592000", "144835.592000", "144837.590000", "144839.590000", "144841.590000", "144843.591000", "144845.591000", "144847.590000", "144849.592000", "144851.593000", "144853.591000", "144855.592000", "144857.591000", "144859.591000", "144901.591000", "144903.591000", "144905.590000", "144907.592000", "144909.592000", "144911.592000", "144913.591000", "144915.591000", "144917.589000", "144919.591000", "144921.590000", "144923.591000", "144925.592000", "144927.592000", "144929.592000", "144931.591000", "144933.590000", "144935.104000"],
      "InstanceNumber": [1, 2, 3, 4, 5, 6, 7, 8, 9, 10, 11, 12, 13, 14, 15, 16, 17, 18, 19, 20, 21, 22, 23, 24, 25, 26, 27, 28, 29, 30, 31, 32, 33, 34, 35, 36, 37, 38, 39, 40, 41, 42, 43, 44, 45, 46, 47, 48, 49, 50, 51, 52, 53, 54, 55, 56, 57, 58, 59, 60, 61, 62, 63, 64, 65, 66, 67, 68, 69, 70, 71, 72, 73, 74, 75, 76, 77, 78, 79, 80, 81, 82, 83, 84, 85, 86, 87, 88, 89, 90, 91, 92, 93, 94, 95, 96, 97, 98, 99, 100, 101, 102, 103, 104, 105, 106, 107, 108, 109, 110, 111, 112, 113, 114, 115, 116, 117, 118, 119, 120, 121, 122, 123, 124, 125, 126, 127, 128, 129, 130, 131, 132, 133, 134, 135, 136, 137, 138, 139, 140, 141, 142, 143, 144, 145, 146, 147, 148, 149, 150, 151, 152, 153, 154, 155, 156, 157, 158, 159, 160, 161, 162, 163, 164, 165, 166, 167, 168, 169, 170, 171, 172, 173, 174, 175, 176, 177, 178, 179, 180, 181, 182, 183, 184, 185, 186, 187, 188, 189, 190, 191, 192, 193, 194, 195, 196, 197, 198, 199, 200, 201, 202, 203, 204, 205, 206, 207, 208, 209, 210, 211, 212, 213, 214, 215, 216, 217, 218, 219, 220, 221, 222, 223, 224, 225, 226, 227, 228, 229, 230, 231, 232, 233, 234, 235, 236, 237, 238, 239, 240, 241, 242, 243, 244, 245, 246, 247, 248, 249, 250, 251, 252, 253, 254, 255, 256, 257, 258, 259, 260, 261, 262, 263, 264, 265, 266, 267, 268, 269, 270, 271, 272, 273, 274, 275, 276, 277, 278, 279, 280, 281, 282, 283, 284, 285, 286, 287, 288, 289],
      "WindowCenter": [17158.0, 17162.0, 17158.0, 17149.0, 17133.0, 17126.0, 17143.0, 17154.0, 17168.0, 17144.0, 17123.0, 17103.0, 17093.0, 17117.0, 17120.0, 17138.0, 17130.0, 17131.0, 17128.0, 17103.0, 17120.0, 17115.0, 17118.0, 17111.0, 17112.0, 17121.0, 17099.0, 17112.0, 17093.0, 17097.0, 17121.0, 17128.0, 17136.0, 17107.0, 17098.0, 17108.0, 17127.0, 17126.0, 17128.0, 17120.0, 17094.0, 17093.0, 17102.0, 17126.0, 17137.0, 17126.0, 17109.0, 17124.0, 17112.0, 17113.0, 17096.0, 17109.0, 17110.0, 17105.0, 17118.0, 17125.0, 17128.0, 17099.0, 17088.0, 17094.0, 17133.0, 17137.0, 17128.0, 17110.0, 17092.0, 17096.0, 17119.0, 17116.0, 17126.0, 17119.0, 17100.0, 17113.0, 17118.0, 17120.0, 17107.0, 17117.0, 17099.0, 17107.0, 17111.0, 17105.0, 17110.0, 17109.0, 17088.0, 17082.0, 17104.0, 17106.0, 17115.0, 17108.0, 17104.0, 17137.0, 17121.0, 17125.0, 17113.0, 17095.0, 17093.0, 17108.0, 17136.0, 17128.0, 17139.0, 17101.0, 17085.0, 17084.0, 17078.0, 17064.0, 17084.0, 17110.0, 17117.0, 17150.0, 17188.0, 17172.0, 17169.0, 17147.0, 17151.0, 17156.0, 17163.0, 17173.0, 17153.0, 17175.0, 17174.0, 17182.0, 17161.0, 17165.0, 17151.0, 17127.0, 17118.0, 17143.0, 17147.0, 17170.0, 17155.0, 17168.0, 17157.0, 17163.0, 17143.0, 17143.0, 17133.0, 17129.0, 17108.0, 17127.0, 17136.0, 17164.0, 17167.0, 17172.0, 17134.0, 17137.0, 17145.0, 17153.0, 17155.0, 17146.0, 17132.0, 17149.0, 17173.0, 17176.0, 17152.0, 17159.0, 17147.0, 17150.0, 17185.0, 17188.0, 17194.0, 17151.0, 17136.0, 17119.0, 17113.0, 17118.0, 17116.0, 17123.0, 17117.0, 17131.0, 17144.0, 17146.0, 17152.0, 17148.0, 17161.0, 17155.0, 17169.0, 17154.0, 17133.0, 17138.0, 17130.0, 17160.0, 17160.0, 17159.0, 17156.0, 17151.0, 17138.0, 17142.0, 17141.0, 17127.0, 17173.0, 17195.0, 17211.0, 17197.0, 17179.0, 17206.0, 17219.0, 17186.0, 17140.0, 17113.0, 17112.0, 17112.0, 17118.0, 17125.0, 17126.0, 17129.0, 17143.0, 17134.0, 17140.0, 17148.0, 17150.0, 17153.0, 17144.0, 17160.0, 17149.0, 17161.0, 17149.0, 17137.0, 17158.0, 17153.0, 17166.0, 17170.0, 17164.0, 17157.0, 17147.0, 17142.0, 17137.0, 17139.0, 17128.0, 17131.0, 17153.0, 17135.0, 17131.0, 17132.0, 17139.0, 17143.0, 17138.0, 17146.0, 17142.0, 17125.0, 17136.0, 17136.0, 17130.0, 17145.0, 17152.0, 17153.0, 17135.0, 17134.0, 17148.0, 17161.0, 17155.0, 17156.0, 17120.0, 17135.0, 17132.0, 17117.0, 17156.0, 17141.0, 17127.0, 17134.0, 17140.0, 17132.0, 17144.0, 17154.0, 17147.0, 17135.0, 17149.0, 17145.0, 17139.0, 17119.0, 17132.0, 17149.0, 17154.0, 17139.0, 17149.0, 17159.0, 17162.0, 17152.0, 17148.0, 17128.0, 17131.0, 17134.0, 17146.0, 17179.0, 17188.0, 17170.0, 17146.0, 17114.0, 17129.0, 17160.0, 17163.0],
      "WindowWidth": [46288.0, 46214.0, 46259.0, 46238.0, 46135.0, 46079.0, 46048.0, 46169.0, 46086.0, 46064.0, 45932.0, 45931.0, 45896.0, 45919.0, 46037.0, 46102.0, 46094.0, 46083.0, 46028.0, 46010.0, 46027.0, 46083.0, 46071.0, 46079.0, 46015.0, 46012.0, 46005.0, 45976.0, 45961.0, 45979.0, 46039.0, 46069.0, 46064.0, 46012.0, 46043.0, 46106.0, 46070.0, 46055.0, 46068.0, 46033.0, 46000.0, 45988.0, 46063.0, 46119.0, 46115.0, 46079.0, 46065.0, 46079.0, 46056.0, 46031.0, 46029.0, 45999.0, 46002.0, 46077.0, 46046.0, 46025.0, 45991.0, 45978.0, 45970.0, 46014.0, 46085.0, 46152.0, 46080.0, 45986.0, 45999.0, 46057.0, 46117.0, 46139.0, 46146.0, 46073.0, 46111.0, 46094.0, 46126.0, 46100.0, 46064.0, 46072.0, 46071.0, 46105.0, 46147.0, 46089.0, 46065.0, 46025.0, 45995.0, 46045.0, 46063.0, 46092.0, 46136.0, 46088.0, 46087.0, 46179.0, 46155.0, 46079.0, 46005.0, 45989.0, 46014.0, 46104.0, 46127.0, 46108.0, 46246.0, 46058.0, 45996.0, 45908.0, 45784.0, 45789.0, 45861.0, 45960.0, 46058.0, 46189.0, 46307.0, 46290.0, 46288.0, 46282.0, 46273.0, 46316.0, 46336.0, 46304.0, 46271.0, 46356.0, 46422.0, 46336.0, 46255.0, 46180.0, 46116.0, 46121.0, 46141.0, 46163.0, 46167.0, 46187.0, 46176.0, 46241.0, 46255.0, 46322.0, 46290.0, 46185.0, 46165.0, 46160.0, 46157.0, 46198.0, 46220.0, 46282.0, 46403.0, 46275.0, 46178.0, 46224.0, 46203.0, 46131.0, 46107.0, 46136.0, 46165.0, 46168.0, 46175.0, 46166.0, 46146.0, 46165.0, 46181.0, 46249.0, 46342.0, 46445.0, 46368.0, 46265.0, 46125.0, 46047.0, 46029.0, 46061.0, 46112.0, 46156.0, 46151.0, 46190.0, 46204.0, 46167.0, 46160.0, 46196.0, 46258.0, 46252.0, 46226.0, 46160.0, 46159.0, 46148.0, 46142.0, 46207.0, 46243.0, 46203.0, 46135.0, 46183.0, 46211.0, 46215.0, 46165.0, 46155.0, 46286.0, 46407.0, 46509.0, 46455.0, 46466.0, 46617.0, 46607.0, 46396.0, 46162.0, 46090.0, 46039.0, 46107.0, 46137.0, 46154.0, 46154.0, 46196.0, 46222.0, 46213.0, 46206.0, 46212.0, 46227.0, 46257.0, 46262.0, 46237.0, 46214.0, 46198.0, 46214.0, 46231.0, 46209.0, 46206.0, 46205.0, 46219.0, 46213.0, 46181.0, 46122.0, 46121.0, 46105.0, 46091.0, 46068.0, 46097.0, 46117.0, 46128.0, 46098.0, 46113.0, 46168.0, 46183.0, 46142.0, 46162.0, 46148.0, 46129.0, 46086.0, 46088.0, 46124.0, 46151.0, 46182.0, 46181.0, 46178.0, 46178.0, 46191.0, 46240.0, 46209.0, 46116.0, 46034.0, 46063.0, 46060.0, 46075.0, 46120.0, 46117.0, 46094.0, 46113.0, 46079.0, 46075.0, 46088.0, 46160.0, 46252.0, 46232.0, 46142.0, 46099.0, 46082.0, 46105.0, 46153.0, 46193.0, 46158.0, 46110.0, 46118.0, 46254.0, 46292.0, 46244.0, 46124.0, 46071.0, 46073.0, 46142.0, 46203.0, 46344.0, 46364.0, 46203.0, 46095.0, 46032.0, 46152.0, 46294.0, 46254.0]
    },
    "slices": {}
  }
}