{
  "AcquisitionMatrixPE": 116,
  "AcquisitionNumber": 1,
  "AcquisitionTime": "14:29:17.817500",
  "BandwidthPerPixelPhaseEncode": 18.539,
  "BaseResolution": 116,
  "BodyPartExamined": "HEAD",
  "ConsistencyInfo": "N4_VD13D_LATEST_20130810",
  "ConversionSoftware": "dcm2niix",
  "ConversionSoftwareVersion": "v1.0.20190410  (JP2:OpenJPEG) (JP-LS:CharLS) GCC5.5.0",
  "DerivedVendorReportedEchoSpacing": 0.000930006,
  "DeviceSerialNumber": "66014",
  "DwellTime": 3e-06,
  "EchoTime": 0.03,
  "EchoTrainLength": 50,
  "EffectiveEchoSpacing": 0.000465003,
  "FlipAngle": 81,
  "ImageComments": "Unaliased_MB3_PE4",
  "ImageOrientationPatientDICOM": [0.999936, -0.0107259, 0.00347174, 0.0104717, 0.997737, 0.0664111],
  "ImageType": [
    "ORIGINAL",
    "PRIMARY",
    "M",
    "MB",
    "ND",
    "MOSAIC"
],
  "ImagingFrequency": 123.261,
  "InPlanePhaseEncodingDirectionDICOM": "COL",
  "InstitutionAddress": "Yiheyuan_Road_5_Beijing_Haidian_CN_100871",
  "InstitutionName": "Peking_Univeristy",
  "InstitutionalDepartmentName": "Department",
  "MRAcquisitionType": "2D",
  "MagneticFieldStrength": 3,
  "Manufacturer": "Siemens",
  "ManufacturersModelName": "Prisma",
  "Modality": "MR",
  "MultibandAccelerationFactor": 3,
  "ParallelReductionFactorInPlane": 2,
  "PartialFourier": 0.875,
  "PatientPosition": "HFS",
  "PercentPhaseFOV": 100,
  "PhaseEncodingDirection": "j-",
  "PhaseEncodingSteps": 101,
  "PhaseResolution": 1,
  "PixelBandwidth": 1435,
  "ProcedureStepDescription": "Research_Projects_64CH",
  "ProtocolName": "mbep2d_bold_MB3_test1",
  "PulseSequenceDetails": "%CustomerSeq%_cmrr_mbep2d_bold",
  "ReceiveCoilActiveElements": "HC1-7",
  "ReceiveCoilName": "HeadNeck_64",
  "ReconMatrixPE": 116,
  "RefLinesPE": 44,
  "RepetitionTime": 2,
  "SAR": 0.0573477,
  "ScanOptions": "PFP_FS",
  "ScanningSequence": "EP",
  "SequenceName": "epfid2d1_116",
  "SequenceVariant": "SK_SS",
  "SeriesDescription": "mbep2d_bold_MB3_test1",
  "SeriesNumber": 6,
  "ShimSetting": [-3450, -2093, -1922, 515, -26, -272, 6, 29],
  "SliceThickness": 1.9,
  "SliceTiming": [0, 0.9075, 1.815, 0.7425, 1.65, 0.5775, 1.485, 0.4125, 1.32, 0.2475, 1.155, 0.0825, 0.99, 1.8975, 0.825, 1.7325, 0.66, 1.5675, 0.495, 1.4025, 0.33, 1.2375, 0.165, 1.0725, 0, 0.9075, 1.815, 0.7425, 1.65, 0.5775, 1.485, 0.4125, 1.32, 0.2475, 1.155, 0.0825, 0.99, 1.8975, 0.825, 1.7325, 0.66, 1.5675, 0.495, 1.4025, 0.33, 1.2375, 0.165, 1.0725, 0, 0.9075, 1.815, 0.7425, 1.65, 0.5775, 1.485, 0.4125, 1.32, 0.2475, 1.155, 0.0825, 0.99, 1.8975, 0.825, 1.7325, 0.66, 1.5675, 0.495, 1.4025, 0.33, 1.2375, 0.165, 1.0725],
  "SoftwareVersions": "syngo_MR_D13D",
  "SpacingBetweenSlices": 1.9,
  "StationName": "AWP66014",
  "TaskName": "retrieval",
  "TotalReadoutTime": 0.0534753,
  "TxRefAmp": 217.464,
  "WipMemBlock": "043860a0-79d9-4c53-b572-25dd6f39d4cf||Sequence: vd13d/master r/0735857; Nov 19 2014 09:21:40 by eja",
  "dcmmeta_affine": [
    [-1.8964312076568604, 0.01986015774309635, 0.007934791035950184, 108.36717224121094],
    [0.02034219540655613, 1.8922605514526367, 0.12610407173633575, -100.240478515625],
    [0.006584339775145054, -0.12595215439796448, 1.8957940340042114, -55.47557067871094],
    [0.0, 0.0, 0.0, 1.0]
],
  "dcmmeta_reorient_transform": [
    [0.0, -1.0, 0.0, 115.0],
    [1.0, 0.0, 0.0, 0.0],
    [0.0, 0.0, 1.0, 0.0],
    [0.0, 0.0, 0.0, 1.0]
],
  "dcmmeta_shape": [116, 116, 72, 289],
  "dcmmeta_slice_dim": 2,
  "dcmmeta_version": 0.6,
  "global": {
    "const": {
      "AcquisitionMatrix": [116, 0, 0, 116],
      "AngioFlag": "N",
      "BitsAllocated": 16,
      "BitsStored": 16,
      "BodyPartExamined": "HEAD",
      "Columns": 1044,
      "EchoNumbers": 1,
      "EchoTime": 30.0,
      "EchoTrainLength": 50,
      "FlipAngle": 81.0,
      "HighBit": 15,
      "ImageOrientationPatient": [0.99993644918269, -0.0107258844543, 0.00347174287409, 0.01047171907864, 0.9977373922708, 0.0664111373506],
      "ImagePositionPatient": [-999.81028226545, -985.93961549074, -131.45700460584],
      "ImageType": [
        "ORIGINAL",
        "PRIMARY",
        "M",
        "MB",
        "ND",
        "MOSAIC"
],
      "ImagedNucleus": "1H",
      "ImagingFrequency": 123.260567,
      "InPlanePhaseEncodingDirection": "COL",
      "LargestImagePixelValue": 65535,
      "MRAcquisitionType": "2D",
      "MagneticFieldStrength": 3.0,
      "Manufacturer": "SIEMENS",
      "ManufacturerModelName": "Prisma",
      "Modality": "MR",
      "NumberOfAverages": 1.0,
      "NumberOfPhaseEncodingSteps": 101,
      "PercentPhaseFieldOfView": 100.0,
      "PercentSampling": 100.0,
      "PerformedProcedureStepStartTime": "141605.763000",
      "PhotometricInterpretation": "MONOCHROME2",
      "PixelBandwidth": 1435.0,
      "PixelRepresentation": 0,
      "PixelSpacing": [1.8965517282486, 1.8965517282486],
      "ProtocolName": "mbep2d_bold_MB3_test1",
      "RepetitionTime": 2000.0,
      "Rows": 1044,
      "SAR": 0.05734771167939,
      "SamplesPerPixel": 1,
      "ScanOptions": [
        "PFP",
        "FS"
],
      "ScanningSequence": "EP",
      "SequenceName": "epfid2d1_116",
      "SequenceVariant": [
        "SK",
        "SS"
],
      "SeriesDescription": "mbep2d_bold_MB3_test1",
      "SeriesNumber": 6,
      "SeriesTime": "142933.025000",
      "SliceLocation": -61.553219018881,
      "SliceThickness": 1.8999999761581,
      "SmallestImagePixelValue": 0,
      "SoftwareVersions": "syngo MR D13D",
      "SpacingBetweenSlices": 1.9000000436972,
      "SpecificCharacterSet": "ISO_IR 100",
      "StudyID": "1",
      "StudyTime": "141605.717000",
      "TimeOfLastCalibration": ["123723.000000", "123723.000000"],
      "TransmitCoilName": "Body",
      "VariableFlipAngleFlag": "N",
      "WindowCenterWidthExplanation": "Algo1",
      "dBdt": 0.0},
    "slices": {}
  },
  "time": {
    "samples": {
      "AcquisitionNumber": [1, 2, 3, 4, 5, 6, 7, 8, 9, 10, 11, 12, 13, 14, 15, 16, 17, 18, 19, 20, 21, 22, 23, 24, 25, 26, 27, 28, 29, 30, 31, 32, 33, 34, 35, 36, 37, 38, 39, 40, 41, 42, 43, 44, 45, 46, 47, 48, 49, 50, 51, 52, 53, 54, 55, 56, 57, 58, 59, 60, 61, 62, 63, 64, 65, 66, 67, 68, 69, 70, 71, 72, 73, 74, 75, 76, 77, 78, 79, 80, 81, 82, 83, 84, 85, 86, 87, 88, 89, 90, 91, 92, 93, 94, 95, 96, 97, 98, 99, 100, 101, 102, 103, 104, 105, 106, 107, 108, 109, 110, 111, 112, 113, 114, 115, 116, 117, 118, 119, 120, 121, 122, 123, 124, 125, 126, 127, 128, 129, 130, 131, 132, 133, 134, 135, 136, 137, 138, 139, 140, 141, 142, 143, 144, 145, 146, 147, 148, 149, 150, 151, 152, 153, 154, 155, 156, 157, 158, 159, 160, 161, 162, 163, 164, 165, 166, 167, 168, 169, 170, 171, 172, 173, 174, 175, 176, 177, 178, 179, 180, 181, 182, 183, 184, 185, 186, 187, 188, 189, 190, 191, 192, 193, 194, 195, 196, 197, 198, 199, 200, 201, 202, 203, 204, 205, 206, 207, 208, 209, 210, 211, 212, 213, 214, 215, 216, 217, 218, 219, 220, 221, 222, 223, 224, 225, 226, 227, 228, 229, 230, 231, 232, 233, 234, 235, 236, 237, 238, 239, 240, 241, 242, 243, 244, 245, 246, 247, 248, 249, 250, 251, 252, 253, 254, 255, 256, 257, 258, 259, 260, 261, 262, 263, 264, 265, 266, 267, 268, 269, 270, 271, 272, 273, 274, 275, 276, 277, 278, 279, 280, 281, 282, 283, 284, 285, 286, 287, 288, 289],
      "AcquisitionTime": ["142917.817500", "142919.817500", "142921.817500", "142923.817500", "142925.817500", "142927.817500", "142929.817500", "142931.817500", "142933.817500", "142935.817500", "142937.817500", "142939.817500", "142941.817500", "142943.817500", "142945.817500", "142947.817500", "142949.817500", "142951.817500", "142953.817500", "142955.817500", "142957.817500", "142959.817500", "143001.817500", "143003.817500", "143005.817500", "143007.817500", "143009.817500", "143011.817500", "143013.817500", "143015.817500", "143017.817500", "143019.817500", "143021.817500", "143023.817500", "143025.817500", "143027.817500", "143029.817500", "143031.817500", "143033.817500", "143035.817500", "143037.817500", "143039.817500", "143041.817500", "143043.817500", "143045.817500", "143047.817500", "143049.817500", "143051.817500", "143053.817500", "143055.817500", "143057.817500", "143059.817500", "143101.817500", "143103.817500", "143105.817500", "143107.817500", "143109.817500", "143111.817500", "143113.817500", "143115.817500", "143117.817500", "143119.817500", "143121.817500", "143123.817500", "143125.817500", "143127.817500", "143129.817500", "143131.817500", "143133.817500", "143135.817500", "143137.817500", "143139.817500", "143141.817500", "143143.817500", "143145.817500", "143147.817500", "143149.817500", "143151.817500", "143153.817500", "143155.817500", "143157.817500", "143159.817500", "143201.817500", "143203.817500", "143205.817500", "143207.817500", "143209.817500", "143211.817500", "143213.817500", "143215.817500", "143217.817500", "143219.817500", "143221.817500", "143223.817500", "143225.817500", "143227.817500", "143229.817500", "143231.817500", "143233.817500", "143235.817500", "143237.817500", "143239.817500", "143241.817500", "143243.817500", "143245.817500", "143247.817500", "143249.817500", "143251.817500", "143253.817500", "143255.817500", "143257.817500", "143259.817500", "143301.817500", "143303.817500", "143305.817500", "143307.817500", "143309.817500", "143311.817500", "143313.817500", "143315.817500", "143317.817500", "143319.817500", "143321.817500", "143323.817500", "143325.817500", "143327.817500", "143329.817500", "143331.817500", "143333.817500", "143335.817500", "143337.817500", "143339.817500", "143341.817500", "143343.817500", "143345.817500", "143347.817500", "143349.817500", "143351.817500", "143353.817500", "143355.817500", "143357.817500", "143359.817500", "143401.817500", "143403.817500", "143405.817500", "143407.817500", "143409.817500", "143411.817500", "143413.817500", "143415.817500", "143417.817500", "143419.817500", "143421.817500", "143423.817500", "143425.817500", "143427.817500", "143429.817500", "143431.817500", "143433.817500", "143435.817500", "143437.817500", "143439.817500", "143441.817500", "143443.817500", "143445.817500", "143447.817500", "143449.817500", "143451.817500", "143453.817500", "143455.817500", "143457.817500", "143459.817500", "143501.817500", "143503.820000", "143505.820000", "143507.820000", "143509.820000", "143511.820000", "143513.820000", "143515.820000", "143517.820000", "143519.820000", "143521.820000", "143523.820000", "143525.820000", "143527.820000", "143529.820000", "143531.820000", "143533.820000", "143535.820000", "143537.820000", "143539.820000", "143541.820000", "143543.820000", "143545.820000", "143547.820000", "143549.820000", "143551.820000", "143553.820000", "143555.820000", "143557.820000", "143559.820000", "143601.820000", "143603.820000", "143605.820000", "143607.820000", "143609.820000", "143611.820000", "143613.820000", "143615.820000", "143617.820000", "143619.820000", "143621.820000", "143623.820000", "143625.820000", "143627.820000", "143629.820000", "143631.820000", "143633.820000", "143635.820000", "143637.820000", "143639.820000", "143641.820000", "143643.820000", "143645.820000", "143647.820000", "143649.820000", "143651.820000", "143653.820000", "143655.820000", "143657.820000", "143659.820000", "143701.820000", "143703.820000", "143705.820000", "143707.820000", "143709.820000", "143711.820000", "143713.820000", "143715.820000", "143717.820000", "143719.820000", "143721.820000", "143723.820000", "143725.820000", "143727.820000", "143729.820000", "143731.820000", "143733.820000", "143735.820000", "143737.820000", "143739.820000", "143741.820000", "143743.820000", "143745.820000", "143747.820000", "143749.820000", "143751.820000", "143753.820000", "143755.820000", "143757.820000", "143759.820000", "143801.820000", "143803.820000", "143805.820000", "143807.820000", "143809.820000", "143811.820000", "143813.820000", "143815.820000", "143817.820000", "143819.820000", "143821.820000", "143823.820000", "143825.820000", "143827.820000", "143829.820000", "143831.820000", "143833.820000", "143835.820000", "143837.820000", "143839.820000", "143841.820000", "143843.820000", "143845.820000", "143847.820000", "143849.820000", "143851.820000", "143853.820000"],
      "ContentTime": ["142933.031000", "142934.023000", "142935.024000", "142935.028000", "142936.024000", "142937.024000", "142937.028000", "142938.024000", "142939.023000", "142940.024000", "142941.023000", "142943.024000", "142945.024000", "142947.024000", "142949.025000", "142951.024000", "142953.024000", "142955.022000", "142957.023000", "142959.025000", "143001.022000", "143003.024000", "143005.025000", "143007.024000", "143009.024000", "143011.023000", "143013.024000", "143015.024000", "143017.023000", "143019.024000", "143021.024000", "143023.024000", "143025.024000", "143027.023000", "143029.024000", "143031.024000", "143033.024000", "143035.024000", "143037.023000", "143039.024000", "143041.024000", "143043.023000", "143045.024000", "143047.023000", "143049.024000", "143051.024000", "143053.024000", "143055.024000", "143057.022000", "143059.023000", "143101.023000", "143103.022000", "143105.024000", "143107.023000", "143109.024000", "143111.024000", "143113.024000", "143115.024000", "143117.023000", "143119.024000", "143121.024000", "143123.025000", "143125.024000", "143127.023000", "143129.024000", "143131.024000", "143133.025000", "143135.024000", "143137.024000", "143139.022000", "143141.024000", "143143.025000", "143145.024000", "143147.024000", "143149.024000", "143151.024000", "143153.024000", "143155.024000", "143157.023000", "143159.023000", "143201.023000", "143203.024000", "143205.024000", "143207.024000", "143209.023000", "143211.022000", "143213.024000", "143215.024000", "143217.024000", "143219.025000", "143221.024000", "143223.023000", "143225.024000", "143227.024000", "143229.024000", "143231.025000", "143233.024000", "143235.024000", "143237.025000", "143239.024000", "143241.024000", "143243.024000", "143245.024000", "143247.024000", "143249.024000", "143251.024000", "143253.024000", "143255.024000", "143257.023000", "143259.024000", "143301.032000", "143303.024000", "143305.024000", "143307.024000", "143309.024000", "143311.024000", "143313.024000", "143315.024000", "143317.024000", "143319.024000", "143321.024000", "143323.023000", "143325.024000", "143327.024000", "143329.024000", "143331.024000", "143333.024000", "143335.024000", "143337.023000", "143339.022000", "143341.024000", "143343.024000", "143345.024000", "143347.024000", "143349.025000", "143351.024000", "143353.024000", "143355.024000", "143357.024000", "143359.024000", "143401.024000", "143403.024000", "143405.024000", "143407.024000", "143409.024000", "143411.024000", "143413.023000", "143415.024000", "143417.024000", "143419.024000", "143421.025000", "143423.024000", "143425.024000", "143427.023000", "143429.024000", "143431.025000", "143433.024000", "143435.024000", "143437.024000", "143439.024000", "143441.024000", "143443.024000", "143445.024000", "143447.024000", "143449.024000", "143451.024000", "143453.024000", "143455.023000", "143457.024000", "143459.024000", "143501.024000", "143503.024000", "143505.024000", "143507.024000", "143509.024000", "143511.024000", "143513.024000", "143515.023000", "143517.023000", "143519.024000", "143521.024000", "143523.024000", "143525.025000", "143527.024000", "143529.024000", "143531.025000", "143533.024000", "143535.023000", "143537.023000", "143539.024000", "143541.024000", "143543.024000", "143545.024000", "143547.024000", "143549.024000", "143551.024000", "143553.024000", "143555.023000", "143557.026000", "143559.028000", "143601.027000", "143603.023000", "143605.025000", "143607.024000", "143609.024000", "143611.024000", "143613.024000", "143615.022000", "143617.024000", "143619.024000", "143621.024000", "143623.024000", "143625.024000", "143627.024000", "143629.024000", "143631.024000", "143633.024000", "143635.024000", "143637.024000", "143639.024000", "143641.024000", "143643.024000", "143645.024000", "143647.024000", "143649.024000", "143651.024000", "143653.024000", "143655.024000", "143657.024000", "143659.024000", "143701.024000", "143703.024000", "143705.024000", "143707.024000", "143709.024000", "143711.024000", "143713.024000", "143715.024000", "143717.024000", "143719.025000", "143721.024000", "143723.024000", "143725.024000", "143727.024000", "143729.022000", "143731.024000", "143733.024000", "143735.024000", "143737.024000", "143739.024000", "143741.025000", "143743.024000", "143745.024000", "143747.024000", "143749.025000", "143751.024000", "143753.024000", "143755.023000", "143757.023000", "143759.024000", "143801.024000", "143803.022000", "143805.024000", "143807.024000", "143809.025000", "143811.024000", "143813.025000", "143815.024000", "143817.024000", "143819.024000", "143821.024000", "143823.024000", "143825.024000", "143827.024000", "143829.024000", "143831.024000", "143833.024000", "143835.024000", "143837.024000", "143839.024000", "143841.024000", "143843.024000", "143845.024000", "143847.024000", "143849.024000", "143851.024000", "143853.042000", "143855.024000", "143856.717000"],
      "InstanceCreationTime": ["142933.031000", "142934.023000", "142935.024000", "142935.028000", "142936.024000", "142937.024000", "142937.028000", "142938.024000", "142939.023000", "142940.024000", "142941.023000", "142943.024000", "142945.024000", "142947.024000", "142949.025000", "142951.024000", "142953.024000", "142955.022000", "142957.023000", "142959.025000", "143001.022000", "143003.024000", "143005.025000", "143007.024000", "143009.024000", "143011.023000", "143013.024000", "143015.024000", "143017.023000", "143019.024000", "143021.024000", "143023.024000", "143025.024000", "143027.023000", "143029.024000", "143031.024000", "143033.024000", "143035.024000", "143037.023000", "143039.024000", "143041.024000", "143043.023000", "143045.024000", "143047.023000", "143049.024000", "143051.024000", "143053.024000", "143055.024000", "143057.022000", "143059.023000", "143101.023000", "143103.022000", "143105.024000", "143107.023000", "143109.024000", "143111.024000", "143113.024000", "143115.024000", "143117.023000", "143119.024000", "143121.024000", "143123.025000", "143125.024000", "143127.023000", "143129.024000", "143131.024000", "143133.025000", "143135.024000", "143137.024000", "143139.022000", "143141.024000", "143143.025000", "143145.024000", "143147.024000", "143149.024000", "143151.024000", "143153.024000", "143155.024000", "143157.023000", "143159.023000", "143201.023000", "143203.024000", "143205.024000", "143207.024000", "143209.023000", "143211.022000", "143213.024000", "143215.024000", "143217.024000", "143219.025000", "143221.024000", "143223.023000", "143225.024000", "143227.024000", "143229.024000", "143231.025000", "143233.024000", "143235.024000", "143237.025000", "143239.024000", "143241.024000", "143243.024000", "143245.024000", "143247.024000", "143249.024000", "143251.024000", "143253.024000", "143255.024000", "143257.023000", "143259.024000", "143301.032000", "143303.024000", "143305.024000", "143307.024000", "143309.024000", "143311.024000", "143313.024000", "143315.024000", "143317.024000", "143319.024000", "143321.024000", "143323.023000", "143325.024000", "143327.024000", "143329.024000", "143331.024000", "143333.024000", "143335.024000", "143337.023000", "143339.022000", "143341.024000", "143343.024000", "143345.024000", "143347.024000", "143349.025000", "143351.024000", "143353.024000", "143355.024000", "143357.024000", "143359.024000", "143401.024000", "143403.024000", "143405.024000", "143407.024000", "143409.024000", "143411.024000", "143413.023000", "143415.024000", "143417.024000", "143419.024000", "143421.025000", "143423.024000", "143425.024000", "143427.023000", "143429.024000", "143431.025000", "143433.024000", "143435.024000", "143437.024000", "143439.024000", "143441.024000", "143443.024000", "143445.024000", "143447.024000", "143449.024000", "143451.024000", "143453.024000", "143455.023000", "143457.024000", "143459.024000", "143501.024000", "143503.024000", "143505.024000", "143507.024000", "143509.024000", "143511.024000", "143513.024000", "143515.023000", "143517.023000", "143519.024000", "143521.024000", "143523.024000", "143525.025000", "143527.024000", "143529.024000", "143531.025000", "143533.024000", "143535.023000", "143537.023000", "143539.024000", "143541.024000", "143543.024000", "143545.024000", "143547.024000", "143549.024000", "143551.024000", "143553.024000", "143555.023000", "143557.026000", "143559.028000", "143601.027000", "143603.023000", "143605.025000", "143607.024000", "143609.024000", "143611.024000", "143613.024000", "143615.022000", "143617.024000", "143619.024000", "143621.024000", "143623.024000", "143625.024000", "143627.024000", "143629.024000", "143631.024000", "143633.024000", "143635.024000", "143637.024000", "143639.024000", "143641.024000", "143643.024000", "143645.024000", "143647.024000", "143649.024000", "143651.024000", "143653.024000", "143655.024000", "143657.024000", "143659.024000", "143701.024000", "143703.024000", "143705.024000", "143707.024000", "143709.024000", "143711.024000", "143713.024000", "143715.024000", "143717.024000", "143719.025000", "143721.024000", "143723.024000", "143725.024000", "143727.024000", "143729.022000", "143731.024000", "143733.024000", "143735.024000", "143737.024000", "143739.024000", "143741.025000", "143743.024000", "143745.024000", "143747.024000", "143749.025000", "143751.024000", "143753.024000", "143755.023000", "143757.023000", "143759.024000", "143801.024000", "143803.022000", "143805.024000", "143807.024000", "143809.025000", "143811.024000", "143813.025000", "143815.024000", "143817.024000", "143819.024000", "143821.024000", "143823.024000", "143825.024000", "143827.024000", "143829.024000", "143831.024000", "143833.024000", "143835.024000", "143837.024000", "143839.024000", "143841.024000", "143843.024000", "143845.024000", "143847.024000", "143849.024000", "143851.024000", "143853.042000", "143855.024000", "143856.717000"],
      "InstanceNumber": [1, 2, 3, 4, 5, 6, 7, 8, 9, 10, 11, 12, 13, 14, 15, 16, 17, 18, 19, 20, 21, 22, 23, 24, 25, 26, 27, 28, 29, 30, 31, 32, 33, 34, 35, 36, 37, 38, 39, 40, 41, 42, 43, 44, 45, 46, 47, 48, 49, 50, 51, 52, 53, 54, 55, 56, 57, 58, 59, 60, 61, 62, 63, 64, 65, 66, 67, 68, 69, 70, 71, 72, 73, 74, 75, 76, 77, 78, 79, 80, 81, 82, 83, 84, 85, 86, 87, 88, 89, 90, 91, 92, 93, 94, 95, 96, 97, 98, 99, 100, 101, 102, 103, 104, 105, 106, 107, 108, 109, 110, 111, 112, 113, 114, 115, 116, 117, 118, 119, 120, 121, 122, 123, 124, 125, 126, 127, 128, 129, 130, 131, 132, 133, 134, 135, 136, 137, 138, 139, 140, 141, 142, 143, 144, 145, 146, 147, 148, 149, 150, 151, 152, 153, 154, 155, 156, 157, 158, 159, 160, 161, 162, 163, 164, 165, 166, 167, 168, 169, 170, 171, 172, 173, 174, 175, 176, 177, 178, 179, 180, 181, 182, 183, 184, 185, 186, 187, 188, 189, 190, 191, 192, 193, 194, 195, 196, 197, 198, 199, 200, 201, 202, 203, 204, 205, 206, 207, 208, 209, 210, 211, 212, 213, 214, 215, 216, 217, 218, 219, 220, 221, 222, 223, 224, 225, 226, 227, 228, 229, 230, 231, 232, 233, 234, 235, 236, 237, 238, 239, 240, 241, 242, 243, 244, 245, 246, 247, 248, 249, 250, 251, 252, 253, 254, 255, 256, 257, 258, 259, 260, 261, 262, 263, 264, 265, 266, 267, 268, 269, 270, 271, 272, 273, 274, 275, 276, 277, 278, 279, 280, 281, 282, 283, 284, 285, 286, 287, 288, 289],
      "WindowCenter": [17062.0, 17051.0, 17058.0, 17077.0, 17048.0, 17055.0, 17047.0, 17045.0, 17045.0, 17043.0, 17027.0, 17029.0, 17034.0, 17017.0, 17024.0, 17034.0, 17018.0, 17021.0, 17027.0, 17031.0, 17037.0, 17047.0, 17035.0, 17040.0, 17035.0, 17019.0, 17027.0, 17038.0, 17035.0, 17036.0, 17041.0, 17030.0, 17022.0, 17028.0, 17027.0, 17041.0, 17040.0, 17031.0, 17019.0, 17014.0, 17009.0, 17029.0, 17025.0, 17006.0, 17006.0, 17045.0, 17011.0, 17033.0, 17033.0, 17031.0, 17057.0, 17041.0, 17033.0, 17065.0, 17070.0, 17051.0, 17034.0, 17043.0, 17039.0, 17054.0, 17050.0, 17017.0, 17022.0, 17043.0, 17066.0, 17049.0, 17030.0, 17017.0, 17021.0, 17011.0, 17023.0, 17040.0, 17051.0, 17066.0, 17031.0, 17033.0, 17029.0, 17047.0, 17058.0, 17042.0, 17040.0, 17045.0, 17033.0, 17047.0, 17068.0, 17063.0, 17075.0, 17065.0, 17083.0, 17104.0, 17099.0, 17087.0, 17089.0, 17065.0, 17060.0, 17072.0, 17078.0, 17076.0, 17066.0, 17058.0, 17059.0, 17069.0, 17063.0, 17048.0, 17063.0, 17055.0, 17076.0, 17073.0, 17072.0, 17053.0, 17052.0, 17067.0, 17065.0, 17065.0, 17066.0, 17051.0, 17056.0, 17071.0, 17060.0, 17052.0, 17070.0, 17061.0, 17067.0, 17077.0, 17050.0, 17071.0, 17076.0, 17065.0, 17078.0, 17081.0, 17074.0, 17083.0, 17072.0, 17067.0, 17075.0, 17088.0, 17079.0, 17071.0, 17070.0, 17082.0, 17084.0, 17082.0, 17062.0, 17062.0, 17067.0, 17089.0, 17089.0, 17068.0, 17070.0, 17080.0, 17086.0, 17095.0, 17086.0, 17102.0, 17073.0, 17088.0, 17067.0, 17067.0, 17073.0, 17073.0, 17080.0, 17089.0, 17097.0, 17083.0, 17079.0, 17061.0, 17070.0, 17089.0, 17089.0, 17098.0, 17083.0, 17081.0, 17075.0, 17074.0, 17091.0, 17096.0, 17086.0, 17085.0, 17067.0, 17097.0, 17080.0, 17077.0, 17090.0, 17069.0, 17079.0, 17084.0, 17088.0, 17068.0, 17071.0, 17071.0, 17077.0, 17098.0, 17120.0, 17088.0, 17088.0, 17096.0, 17094.0, 17095.0, 17108.0, 17100.0, 17104.0, 17091.0, 17085.0, 17125.0, 17128.0, 17108.0, 17101.0, 17078.0, 17066.0, 17072.0, 17100.0, 17123.0, 17101.0, 17083.0, 17069.0, 17072.0, 17105.0, 17103.0, 17096.0, 17098.0, 17097.0, 17115.0, 17100.0, 17076.0, 17088.0, 17090.0, 17092.0, 17098.0, 17120.0, 17097.0, 17087.0, 17093.0, 17083.0, 17078.0, 17086.0, 17088.0, 17092.0, 17085.0, 17081.0, 17082.0, 17091.0, 17091.0, 17093.0, 17104.0, 17101.0, 17110.0, 17122.0, 17082.0, 17085.0, 17089.0, 17082.0, 17108.0, 17121.0, 17118.0, 17105.0, 17085.0, 17067.0, 17093.0, 17106.0, 17102.0, 17086.0, 17101.0, 17108.0, 17107.0, 17128.0, 17129.0, 17130.0, 17114.0, 17132.0, 17132.0, 17116.0, 17107.0, 17088.0, 17099.0, 17105.0, 17102.0, 17105.0, 17101.0, 17104.0, 17092.0, 17085.0, 17120.0, 17115.0, 17112.0, 17110.0, 17103.0, 17079.0, 17110.0, 17123.0],
      "WindowWidth": [46029.0, 45942.0, 46063.0, 46116.0, 46052.0, 46022.0, 45989.0, 45964.0, 45949.0, 45907.0, 45921.0, 45909.0, 45889.0, 45913.0, 45920.0, 45914.0, 45898.0, 45889.0, 45858.0, 45890.0, 45945.0, 45967.0, 45954.0, 45945.0, 45889.0, 45838.0, 45847.0, 45843.0, 45865.0, 45917.0, 45883.0, 45834.0, 45817.0, 45834.0, 45858.0, 45884.0, 45884.0, 45825.0, 45828.0, 45796.0, 45818.0, 45807.0, 45752.0, 45750.0, 45777.0, 45796.0, 45806.0, 45838.0, 45838.0, 45824.0, 45835.0, 45834.0, 45894.0, 45997.0, 45973.0, 45815.0, 45843.0, 45876.0, 45910.0, 45921.0, 45892.0, 45814.0, 45806.0, 45863.0, 45931.0, 45852.0, 45785.0, 45749.0, 45741.0, 45770.0, 45779.0, 45794.0, 45857.0, 45818.0, 45801.0, 45751.0, 45761.0, 45840.0, 45862.0, 45847.0, 45848.0, 45852.0, 45894.0, 45972.0, 45974.0, 45947.0, 45994.0, 45996.0, 45997.0, 46082.0, 46088.0, 45973.0, 45924.0, 45879.0, 45877.0, 45939.0, 45956.0, 45901.0, 45881.0, 45874.0, 45862.0, 45872.0, 45854.0, 45789.0, 45829.0, 45874.0, 45863.0, 45873.0, 45834.0, 45832.0, 45872.0, 45896.0, 45880.0, 45895.0, 45908.0, 45884.0, 45902.0, 45900.0, 45888.0, 45881.0, 45885.0, 45931.0, 45963.0, 45904.0, 45880.0, 45925.0, 45944.0, 45921.0, 45908.0, 45931.0, 45927.0, 45906.0, 45899.0, 45923.0, 45982.0, 46004.0, 45984.0, 45951.0, 45938.0, 45962.0, 45963.0, 45960.0, 45941.0, 45957.0, 45988.0, 45979.0, 45979.0, 45972.0, 45963.0, 45984.0, 46003.0, 45997.0, 46013.0, 45961.0, 45924.0, 45900.0, 45923.0, 45884.0, 45890.0, 45939.0, 45945.0, 46019.0, 46051.0, 45999.0, 45945.0, 45927.0, 45937.0, 45979.0, 45991.0, 45949.0, 45907.0, 45931.0, 45916.0, 45995.0, 46034.0, 45983.0, 45975.0, 45921.0, 45907.0, 45946.0, 45946.0, 45968.0, 45980.0, 45986.0, 46007.0, 46051.0, 46015.0, 45920.0, 45950.0, 45988.0, 45967.0, 45970.0, 46013.0, 46003.0, 45938.0, 45956.0, 45941.0, 45983.0, 46033.0, 46052.0, 46003.0, 45950.0, 45962.0, 46087.0, 46124.0, 46003.0, 45945.0, 45913.0, 45892.0, 45978.0, 46067.0, 46071.0, 46014.0, 45946.0, 45909.0, 45967.0, 46059.0, 46029.0, 46011.0, 46025.0, 46037.0, 46025.0, 45923.0, 45892.0, 45916.0, 45944.0, 45955.0, 46041.0, 46019.0, 45948.0, 45991.0, 46020.0, 45960.0, 45956.0, 45977.0, 45965.0, 45964.0, 45947.0, 45906.0, 45896.0, 45943.0, 45944.0, 45957.0, 46004.0, 46052.0, 46099.0, 46046.0, 45962.0, 45939.0, 45980.0, 46040.0, 46117.0, 46165.0, 46106.0, 46030.0, 45974.0, 45947.0, 46010.0, 46047.0, 45991.0, 46005.0, 46001.0, 45993.0, 46060.0, 46119.0, 46069.0, 46097.0, 46108.0, 46123.0, 46172.0, 46170.0, 46072.0, 46004.0, 46026.0, 46044.0, 46029.0, 45994.0, 45978.0, 45979.0, 45969.0, 45990.0, 45993.0, 46003.0, 46040.0, 45986.0, 45939.0, 45971.0, 46037.0, 46036.0]
    },
    "slices": {}
  }
}