{
  "AcquisitionMatrixPE": 116,
  "AcquisitionNumber": 1,
  "AcquisitionTime": "15:01:18.557500",
  "BandwidthPerPixelPhaseEncode": 18.539,
  "BaseResolution": 116,
  "BodyPartExamined": "HEAD",
  "ConsistencyInfo": "N4_VD13D_LATEST_20130810",
  "ConversionSoftware": "dcm2niix",
  "ConversionSoftwareVersion": "v1.0.20190410  (JP2:OpenJPEG) (JP-LS:CharLS) GCC5.5.0",
  "DerivedVendorReportedEchoSpacing": 0.000930006,
  "DeviceSerialNumber": "66014",
  "DwellTime": 3e-06,
  "EchoTime": 0.03,
  "EchoTrainLength": 50,
  "EffectiveEchoSpacing": 0.000465003,
  "FlipAngle": 81,
  "ImageComments": "Unaliased_MB3_PE4",
  "ImageOrientationPatientDICOM": [0.999936, -0.0107259, 0.00347174, 0.0104717, 0.997737, 0.0664111],
  "ImageType": [
    "ORIGINAL",
    "PRIMARY",
    "M",
    "MB",
    "ND",
    "MOSAIC"
],
  "ImagingFrequency": 123.261,
  "InPlanePhaseEncodingDirectionDICOM": "COL",
  "InstitutionAddress": "Yiheyuan_Road_5_Beijing_Haidian_CN_100871",
  "InstitutionName": "Peking_Univeristy",
  "InstitutionalDepartmentName": "Department",
  "MRAcquisitionType": "2D",
  "MagneticFieldStrength": 3,
  "Manufacturer": "Siemens",
  "ManufacturersModelName": "Prisma",
  "Modality": "MR",
  "MultibandAccelerationFactor": 3,
  "ParallelReductionFactorInPlane": 2,
  "PartialFourier": 0.875,
  "PatientPosition": "HFS",
  "PercentPhaseFOV": 100,
  "PhaseEncodingDirection": "j-",
  "PhaseEncodingSteps": 101,
  "PhaseResolution": 1,
  "PixelBandwidth": 1435,
  "ProcedureStepDescription": "Research_Projects_64CH",
  "ProtocolName": "mbep2d_bold_MB3_loca1",
  "PulseSequenceDetails": "%CustomerSeq%_cmrr_mbep2d_bold",
  "ReceiveCoilActiveElements": "HC1-7",
  "ReceiveCoilName": "HeadNeck_64",
  "ReconMatrixPE": 116,
  "RefLinesPE": 44,
  "RepetitionTime": 2,
  "SAR": 0.0562773,
  "ScanOptions": "PFP_FS",
  "ScanningSequence": "EP",
  "SequenceName": "epfid2d1_116",
  "SequenceVariant": "SK_SS",
  "SeriesDescription": "mbep2d_bold_MB3_loca1",
  "SeriesNumber": 9,
  "ShimSetting": [-3450, -2093, -1922, 515, -26, -272, 6, 29],
  "SliceThickness": 1.9,
  "SliceTiming": [0, 0.9075, 1.815, 0.7425, 1.65, 0.5775, 1.485, 0.4125, 1.32, 0.2475, 1.155, 0.0825, 0.99, 1.8975, 0.825, 1.7325, 0.66, 1.5675, 0.495, 1.4025, 0.33, 1.2375, 0.165, 1.0725, 0, 0.9075, 1.815, 0.7425, 1.65, 0.5775, 1.485, 0.4125, 1.32, 0.2475, 1.155, 0.0825, 0.99, 1.8975, 0.825, 1.7325, 0.66, 1.5675, 0.495, 1.4025, 0.33, 1.2375, 0.165, 1.0725, 0, 0.9075, 1.815, 0.7425, 1.65, 0.5775, 1.485, 0.4125, 1.32, 0.2475, 1.155, 0.0825, 0.99, 1.8975, 0.825, 1.7325, 0.66, 1.5675, 0.495, 1.4025, 0.33, 1.2375, 0.165, 1.0725],
  "SoftwareVersions": "syngo_MR_D13D",
  "SpacingBetweenSlices": 1.9,
  "StationName": "AWP66014",
  "TaskName": "localizer",
  "TotalReadoutTime": 0.0534753,
  "TxRefAmp": 217.464,
  "WipMemBlock": "48ec1df2-a6cf-4d26-a455-db74acaf7c6d||Sequence: vd13d/master r/0735857; Nov 19 2014 09:21:40 by eja",
  "dcmmeta_affine": [
    [-1.8964312076568604, 0.01986015774309635, 0.007934791035950184, 108.36717224121094],
    [0.02034219540655613, 1.8922605514526367, 0.12610407173633575, -100.240478515625],
    [0.006584339775145054, -0.12595215439796448, 1.8957940340042114, -55.47557067871094],
    [0.0, 0.0, 0.0, 1.0]
],
  "dcmmeta_reorient_transform": [
    [0.0, -1.0, 0.0, 115.0],
    [1.0, 0.0, 0.0, 0.0],
    [0.0, 0.0, 1.0, 0.0],
    [0.0, 0.0, 0.0, 1.0]
],
  "dcmmeta_shape": [116, 116, 72, 164],
  "dcmmeta_slice_dim": 2,
  "dcmmeta_version": 0.6,
  "global": {
    "const": {
      "AcquisitionMatrix": [116, 0, 0, 116],
      "AngioFlag": "N",
      "BitsAllocated": 16,
      "BitsStored": 16,
      "BodyPartExamined": "HEAD",
      "Columns": 1044,
      "EchoNumbers": 1,
      "EchoTime": 30.0,
      "EchoTrainLength": 50,
      "FlipAngle": 81.0,
      "HighBit": 15,
      "ImageOrientationPatient": [0.99993644918269, -0.0107258844543, 0.00347174287409, 0.01047171907864, 0.9977373922708, 0.0664111373506],
      "ImagePositionPatient": [-999.81028226545, -985.93961549074, -131.45700460584],
      "ImageType": [
        "ORIGINAL",
        "PRIMARY",
        "M",
        "MB",
        "ND",
        "MOSAIC"
],
      "ImagedNucleus": "1H",
      "ImagingFrequency": 123.26057,
      "InPlanePhaseEncodingDirection": "COL",
      "LargestImagePixelValue": 65535,
      "MRAcquisitionType": "2D",
      "MagneticFieldStrength": 3.0,
      "Manufacturer": "SIEMENS",
      "ManufacturerModelName": "Prisma",
      "Modality": "MR",
      "NumberOfAverages": 1.0,
      "NumberOfPhaseEncodingSteps": 101,
      "PercentPhaseFieldOfView": 100.0,
      "PercentSampling": 100.0,
      "PerformedProcedureStepStartTime": "141605.763000",
      "PhotometricInterpretation": "MONOCHROME2",
      "PixelBandwidth": 1435.0,
      "PixelRepresentation": 0,
      "PixelSpacing": [1.8965517282486, 1.8965517282486],
      "ProtocolName": "mbep2d_bold_MB3_loca1",
      "RepetitionTime": 2000.0,
      "Rows": 1044,
      "SAR": 0.05627728043532,
      "SamplesPerPixel": 1,
      "ScanOptions": [
        "PFP",
        "FS"
],
      "ScanningSequence": "EP",
      "SequenceName": "epfid2d1_116",
      "SequenceVariant": [
        "SK",
        "SS"
],
      "SeriesDescription": "mbep2d_bold_MB3_loca1",
      "SeriesNumber": 9,
      "SeriesTime": "150133.850000",
      "SliceLocation": -61.553219018881,
      "SliceThickness": 1.8999999761581,
      "SmallestImagePixelValue": 0,
      "SoftwareVersions": "syngo MR D13D",
      "SpacingBetweenSlices": 1.9000000436972,
      "SpecificCharacterSet": "ISO_IR 100",
      "StudyID": "1",
      "StudyTime": "141605.717000",
      "TimeOfLastCalibration": ["123723.000000", "123723.000000"],
      "TransmitCoilName": "Body",
      "VariableFlipAngleFlag": "N",
      "WindowCenterWidthExplanation": "Algo1",
      "dBdt": 0.0},
    "slices": {}
  },
  "time": {
    "samples": {
      "AcquisitionNumber": [1, 2, 3, 4, 5, 6, 7, 8, 9, 10, 11, 12, 13, 14, 15, 16, 17, 18, 19, 20, 21, 22, 23, 24, 25, 26, 27, 28, 29, 30, 31, 32, 33, 34, 35, 36, 37, 38, 39, 40, 41, 42, 43, 44, 45, 46, 47, 48, 49, 50, 51, 52, 53, 54, 55, 56, 57, 58, 59, 60, 61, 62, 63, 64, 65, 66, 67, 68, 69, 70, 71, 72, 73, 74, 75, 76, 77, 78, 79, 80, 81, 82, 83, 84, 85, 86, 87, 88, 89, 90, 91, 92, 93, 94, 95, 96, 97, 98, 99, 100, 101, 102, 103, 104, 105, 106, 107, 108, 109, 110, 111, 112, 113, 114, 115, 116, 117, 118, 119, 120, 121, 122, 123, 124, 125, 126, 127, 128, 129, 130, 131, 132, 133, 134, 135, 136, 137, 138, 139, 140, 141, 142, 143, 144, 145, 146, 147, 148, 149, 150, 151, 152, 153, 154, 155, 156, 157, 158, 159, 160, 161, 162, 163, 164],
      "AcquisitionTime": ["150118.557500", "150120.557500", "150122.557500", "150124.557500", "150126.557500", "150128.557500", "150130.557500", "150132.557500", "150134.557500", "150136.557500", "150138.557500", "150140.557500", "150142.557500", "150144.557500", "150146.557500", "150148.557500", "150150.557500", "150152.557500", "150154.557500", "150156.557500", "150158.557500", "150200.557500", "150202.557500", "150204.557500", "150206.557500", "150208.557500", "150210.557500", "150212.557500", "150214.557500", "150216.557500", "150218.557500", "150220.557500", "150222.557500", "150224.557500", "150226.557500", "150228.557500", "150230.557500", "150232.557500", "150234.557500", "150236.557500", "150238.557500", "150240.557500", "150242.557500", "150244.557500", "150246.557500", "150248.557500", "150250.557500", "150252.557500", "150254.557500", "150256.557500", "150258.557500", "150300.557500", "150302.557500", "150304.557500", "150306.557500", "150308.557500", "150310.557500", "150312.557500", "150314.557500", "150316.557500", "150318.557500", "150320.557500", "150322.557500", "150324.557500", "150326.557500", "150328.557500", "150330.557500", "150332.557500", "150334.557500", "150336.557500", "150338.557500", "150340.557500", "150342.557500", "150344.557500", "150346.557500", "150348.557500", "150350.557500", "150352.557500", "150354.557500", "150356.557500", "150358.557500", "150400.557500", "150402.557500", "150404.557500", "150406.557500", "150408.557500", "150410.557500", "150412.557500", "150414.557500", "150416.557500", "150418.557500", "150420.557500", "150422.557500", "150424.557500", "150426.557500", "150428.557500", "150430.557500", "150432.557500", "150434.557500", "150436.557500", "150438.557500", "150440.557500", "150442.557500", "150444.557500", "150446.557500", "150448.557500", "150450.557500", "150452.557500", "150454.557500", "150456.560000", "150458.560000", "150500.560000", "150502.560000", "150504.560000", "150506.560000", "150508.560000", "150510.560000", "150512.560000", "150514.560000", "150516.560000", "150518.560000", "150520.560000", "150522.560000", "150524.560000", "150526.560000", "150528.560000", "150530.560000", "150532.560000", "150534.560000", "150536.560000", "150538.560000", "150540.560000", "150542.560000", "150544.560000", "150546.560000", "150548.560000", "150550.560000", "150552.560000", "150554.560000", "150556.560000", "150558.560000", "150600.560000", "150602.560000", "150604.560000", "150606.560000", "150608.560000", "150610.560000", "150612.560000", "150614.560000", "150616.560000", "150618.560000", "150620.560000", "150622.560000", "150624.560000", "150626.560000", "150628.560000", "150630.560000", "150632.560000", "150634.560000", "150636.560000", "150638.560000", "150640.560000", "150642.560000", "150644.560000"],
      "ContentTime": ["150133.856000", "150134.847000", "150134.852000", "150135.847000", "150136.848000", "150136.852000", "150137.848000", "150138.849000", "150139.848000", "150140.849000", "150141.849000", "150143.349000", "150145.350000", "150147.349000", "150149.349000", "150151.350000", "150153.349000", "150155.349000", "150157.350000", "150159.349000", "150201.349000", "150203.349000", "150205.349000", "150207.348000", "150209.349000", "150211.348000", "150213.349000", "150215.349000", "150217.349000", "150219.349000", "150221.349000", "150223.349000", "150225.349000", "150227.348000", "150229.348000", "150231.350000", "150233.347000", "150235.350000", "150237.347000", "150239.349000", "150241.349000", "150243.350000", "150245.348000", "150247.347000", "150249.348000", "150251.348000", "150253.348000", "150255.349000", "150257.349000", "150259.349000", "150301.349000", "150303.348000", "150305.348000", "150307.348000", "150309.348000", "150311.348000", "150313.348000", "150315.348000", "150317.348000", "150319.348000", "150321.348000", "150323.348000", "150325.348000", "150327.348000", "150329.350000", "150331.349000", "150333.348000", "150335.349000", "150337.365000", "150339.346000", "150341.349000", "150343.349000", "150345.348000", "150347.348000", "150349.348000", "150351.347000", "150353.347000", "150355.347000", "150357.347000", "150359.348000", "150401.348000", "150403.348000", "150405.348000", "150407.347000", "150409.348000", "150411.348000", "150413.347000", "150415.347000", "150417.347000", "150419.348000", "150421.349000", "150423.348000", "150425.347000", "150427.347000", "150429.348000", "150431.347000", "150433.350000", "150435.348000", "150437.348000", "150439.348000", "150441.348000", "150443.350000", "150445.348000", "150447.347000", "150449.349000", "150451.349000", "150453.348000", "150455.348000", "150457.348000", "150459.348000", "150501.348000", "150503.348000", "150505.348000", "150507.347000", "150509.348000", "150511.348000", "150513.348000", "150515.347000", "150517.348000", "150519.348000", "150521.349000", "150523.347000", "150525.349000", "150527.349000", "150529.348000", "150531.348000", "150533.349000", "150535.348000", "150537.349000", "150539.348000", "150541.347000", "150543.348000", "150545.348000", "150547.348000", "150549.349000", "150551.349000", "150553.349000", "150555.348000", "150557.346000", "150559.347000", "150601.349000", "150603.348000", "150605.348000", "150607.349000", "150609.348000", "150611.348000", "150613.348000", "150615.347000", "150617.349000", "150619.349000", "150621.348000", "150623.348000", "150625.348000", "150627.348000", "150629.350000", "150631.348000", "150633.348000", "150635.349000", "150637.348000", "150639.348000", "150641.348000", "150643.348000", "150645.349000", "150646.895000"],
      "InstanceCreationTime": ["150133.856000", "150134.847000", "150134.852000", "150135.847000", "150136.848000", "150136.852000", "150137.848000", "150138.849000", "150139.848000", "150140.849000", "150141.849000", "150143.349000", "150145.350000", "150147.349000", "150149.349000", "150151.350000", "150153.349000", "150155.349000", "150157.350000", "150159.349000", "150201.349000", "150203.349000", "150205.349000", "150207.348000", "150209.349000", "150211.348000", "150213.349000", "150215.349000", "150217.349000", "150219.349000", "150221.349000", "150223.349000", "150225.349000", "150227.348000", "150229.348000", "150231.350000", "150233.347000", "150235.350000", "150237.347000", "150239.349000", "150241.349000", "150243.350000", "150245.348000", "150247.347000", "150249.348000", "150251.348000", "150253.348000", "150255.349000", "150257.349000", "150259.349000", "150301.349000", "150303.348000", "150305.348000", "150307.348000", "150309.348000", "150311.348000", "150313.348000", "150315.348000", "150317.348000", "150319.348000", "150321.348000", "150323.348000", "150325.348000", "150327.348000", "150329.350000", "150331.349000", "150333.348000", "150335.349000", "150337.365000", "150339.346000", "150341.349000", "150343.349000", "150345.348000", "150347.348000", "150349.348000", "150351.347000", "150353.347000", "150355.347000", "150357.347000", "150359.348000", "150401.348000", "150403.348000", "150405.348000", "150407.347000", "150409.348000", "150411.348000", "150413.347000", "150415.347000", "150417.347000", "150419.348000", "150421.349000", "150423.348000", "150425.347000", "150427.347000", "150429.348000", "150431.347000", "150433.350000", "150435.348000", "150437.348000", "150439.348000", "150441.348000", "150443.350000", "150445.348000", "150447.347000", "150449.349000", "150451.349000", "150453.348000", "150455.348000", "150457.348000", "150459.348000", "150501.348000", "150503.348000", "150505.348000", "150507.347000", "150509.348000", "150511.348000", "150513.348000", "150515.347000", "150517.348000", "150519.348000", "150521.349000", "150523.347000", "150525.349000", "150527.349000", "150529.348000", "150531.348000", "150533.349000", "150535.348000", "150537.349000", "150539.348000", "150541.347000", "150543.348000", "150545.348000", "150547.348000", "150549.349000", "150551.349000", "150553.349000", "150555.348000", "150557.346000", "150559.347000", "150601.349000", "150603.348000", "150605.348000", "150607.349000", "150609.348000", "150611.348000", "150613.348000", "150615.347000", "150617.349000", "150619.349000", "150621.348000", "150623.348000", "150625.348000", "150627.348000", "150629.350000", "150631.348000", "150633.348000", "150635.349000", "150637.348000", "150639.348000", "150641.348000", "150643.348000", "150645.349000", "150646.895000"],
      "InstanceNumber": [1, 2, 3, 4, 5, 6, 7, 8, 9, 10, 11, 12, 13, 14, 15, 16, 17, 18, 19, 20, 21, 22, 23, 24, 25, 26, 27, 28, 29, 30, 31, 32, 33, 34, 35, 36, 37, 38, 39, 40, 41, 42, 43, 44, 45, 46, 47, 48, 49, 50, 51, 52, 53, 54, 55, 56, 57, 58, 59, 60, 61, 62, 63, 64, 65, 66, 67, 68, 69, 70, 71, 72, 73, 74, 75, 76, 77, 78, 79, 80, 81, 82, 83, 84, 85, 86, 87, 88, 89, 90, 91, 92, 93, 94, 95, 96, 97, 98, 99, 100, 101, 102, 103, 104, 105, 106, 107, 108, 109, 110, 111, 112, 113, 114, 115, 116, 117, 118, 119, 120, 121, 122, 123, 124, 125, 126, 127, 128, 129, 130, 131, 132, 133, 134, 135, 136, 137, 138, 139, 140, 141, 142, 143, 144, 145, 146, 147, 148, 149, 150, 151, 152, 153, 154, 155, 156, 157, 158, 159, 160, 161, 162, 163, 164],
      "WindowCenter": [17305.0, 17278.0, 17272.0, 17277.0, 17276.0, 17289.0, 17287.0, 17282.0, 17278.0, 17279.0, 17263.0, 17273.0, 17273.0, 17279.0, 17278.0, 17264.0, 17262.0, 17260.0, 17251.0, 17257.0, 17257.0, 17258.0, 17239.0, 17253.0, 17254.0, 17246.0, 17259.0, 17271.0, 17296.0, 17279.0, 17263.0, 17247.0, 17226.0, 17219.0, 17227.0, 17213.0, 17223.0, 17218.0, 17215.0, 17220.0, 17228.0, 17234.0, 17255.0, 17251.0, 17244.0, 17261.0, 17255.0, 17283.0, 17279.0, 17265.0, 17229.0, 17234.0, 17240.0, 17234.0, 17242.0, 17251.0, 17246.0, 17251.0, 17263.0, 17262.0, 17251.0, 17279.0, 17290.0, 17293.0, 17269.0, 17267.0, 17262.0, 17234.0, 17229.0, 17211.0, 17192.0, 17191.0, 17202.0, 17214.0, 17230.0, 17286.0, 17300.0, 17303.0, 17299.0, 17309.0, 17293.0, 17306.0, 17291.0, 17317.0, 17323.0, 17359.0, 17381.0, 17349.0, 17294.0, 17256.0, 17255.0, 17255.0, 17270.0, 17288.0, 17285.0, 17293.0, 17307.0, 17323.0, 17336.0, 17333.0, 17309.0, 17268.0, 17272.0, 17267.0, 17277.0, 17297.0, 17315.0, 17303.0, 17285.0, 17280.0, 17274.0, 17273.0, 17275.0, 17296.0, 17308.0, 17295.0, 17282.0, 17284.0, 17268.0, 17288.0, 17292.0, 17302.0, 17285.0, 17279.0, 17265.0, 17260.0, 17275.0, 17278.0, 17288.0, 17289.0, 17289.0, 17300.0, 17285.0, 17272.0, 17276.0, 17280.0, 17255.0, 17277.0, 17278.0, 17284.0, 17301.0, 17304.0, 17309.0, 17309.0, 17306.0, 17297.0, 17305.0, 17303.0, 17305.0, 17297.0, 17257.0, 17263.0, 17287.0, 17309.0, 17309.0, 17324.0, 17334.0, 17319.0, 17311.0, 17307.0, 17286.0, 17271.0, 17258.0, 17254.0],
      "WindowWidth": [46461.0, 46375.0, 46369.0, 46412.0, 46451.0, 46460.0, 46486.0, 46506.0, 46450.0, 46425.0, 46398.0, 46420.0, 46459.0, 46464.0, 46437.0, 46427.0, 46452.0, 46514.0, 46485.0, 46439.0, 46439.0, 46411.0, 46370.0, 46370.0, 46370.0, 46427.0, 46436.0, 46589.0, 46606.0, 46502.0, 46463.0, 46437.0, 46343.0, 46313.0, 46292.0, 46242.0, 46266.0, 46276.0, 46260.0, 46267.0, 46314.0, 46394.0, 46462.0, 46454.0, 46412.0, 46416.0, 46464.0, 46523.0, 46529.0, 46411.0, 46332.0, 46341.0, 46348.0, 46318.0, 46337.0, 46330.0, 46312.0, 46355.0, 46353.0, 46406.0, 46449.0, 46535.0, 46553.0, 46489.0, 46391.0, 46364.0, 46347.0, 46262.0, 46260.0, 46168.0, 46061.0, 46087.0, 46137.0, 46131.0, 46264.0, 46355.0, 46388.0, 46429.0, 46425.0, 46408.0, 46432.0, 46459.0, 46525.0, 46563.0, 46668.0, 46750.0, 46831.0, 46698.0, 46445.0, 46288.0, 46250.0, 46253.0, 46279.0, 46333.0, 46407.0, 46465.0, 46555.0, 46617.0, 46663.0, 46583.0, 46487.0, 46428.0, 46395.0, 46393.0, 46479.0, 46558.0, 46570.0, 46482.0, 46392.0, 46339.0, 46271.0, 46299.0, 46417.0, 46574.0, 46591.0, 46474.0, 46427.0, 46380.0, 46394.0, 46435.0, 46540.0, 46533.0, 46403.0, 46336.0, 46235.0, 46234.0, 46247.0, 46264.0, 46310.0, 46363.0, 46362.0, 46446.0, 46512.0, 46432.0, 46371.0, 46322.0, 46302.0, 46308.0, 46400.0, 46458.0, 46472.0, 46501.0, 46479.0, 46481.0, 46466.0, 46455.0, 46423.0, 46396.0, 46395.0, 46337.0, 46305.0, 46362.0, 46409.0, 46468.0, 46508.0, 46597.0, 46630.0, 46539.0, 46520.0, 46515.0, 46406.0, 46304.0, 46244.0, 46159.0]
    },
    "slices": {}
  }
}