{
  "AcquisitionMatrixPE": 116,
  "AcquisitionNumber": 1,
  "AcquisitionTime": "11:58:54.085000",
  "BandwidthPerPixelPhaseEncode": 18.539,
  "BaseResolution": 116,
  "BodyPartExamined": "HEAD",
  "ConsistencyInfo": "N4_VD13D_LATEST_20130810",
  "ConversionSoftware": "dcm2niix",
  "ConversionSoftwareVersion": "v1.0.20190410  (JP2:OpenJPEG) (JP-LS:CharLS) GCC5.5.0",
  "DerivedVendorReportedEchoSpacing": 0.000930006,
  "DeviceSerialNumber": "66014",
  "DwellTime": 3e-06,
  "EchoTime": 0.03,
  "EchoTrainLength": 50,
  "EffectiveEchoSpacing": 0.000465003,
  "FlipAngle": 81,
  "ImageComments": "Unaliased_MB3_PE4",
  "ImageOrientationPatientDICOM": [0.999885, -0.01258, -0.00846255, 0.0122165, 0.999055, -0.0417106],
  "ImageType": [
    "ORIGINAL",
    "PRIMARY",
    "M",
    "MB",
    "ND",
    "MOSAIC"
],
  "ImagingFrequency": 123.261,
  "InPlanePhaseEncodingDirectionDICOM": "COL",
  "InstitutionAddress": "Yiheyuan_Road_5_Beijing_Haidian_CN_100871",
  "InstitutionName": "Peking_Univeristy",
  "InstitutionalDepartmentName": "Department",
  "MRAcquisitionType": "2D",
  "MagneticFieldStrength": 3,
  "Manufacturer": "Siemens",
  "ManufacturersModelName": "Prisma",
  "Modality": "MR",
  "MultibandAccelerationFactor": 3,
  "ParallelReductionFactorInPlane": 2,
  "PartialFourier": 0.875,
  "PatientPosition": "HFS",
  "PercentPhaseFOV": 100,
  "PhaseEncodingDirection": "j-",
  "PhaseEncodingSteps": 101,
  "PhaseResolution": 1,
  "PixelBandwidth": 1435,
  "ProcedureStepDescription": "Research_Projects_64CH",
  "ProtocolName": "mbep2d_bold_MB3_test1",
  "PulseSequenceDetails": "%CustomerSeq%_cmrr_mbep2d_bold",
  "ReceiveCoilActiveElements": "HC1-6",
  "ReceiveCoilName": "HeadNeck_64",
  "ReconMatrixPE": 116,
  "RefLinesPE": 44,
  "RepetitionTime": 2,
  "SAR": 0.0499325,
  "ScanOptions": "PFP_FS",
  "ScanningSequence": "EP",
  "SequenceName": "epfid2d1_116",
  "SequenceVariant": "SK_SS",
  "SeriesDescription": "mbep2d_bold_MB3_test1",
  "SeriesNumber": 6,
  "ShimSetting": [-3450, -2110, -1939, 407, -6, -316, 73, 25],
  "SliceThickness": 1.9,
  "SliceTiming": [0, 0.9075, 1.815, 0.7425, 1.65, 0.5775, 1.485, 0.4125, 1.32, 0.2475, 1.155, 0.0825, 0.99, 1.8975, 0.825, 1.7325, 0.66, 1.5675, 0.495, 1.4025, 0.33, 1.2375, 0.165, 1.0725, 0, 0.9075, 1.815, 0.7425, 1.65, 0.5775, 1.485, 0.4125, 1.32, 0.2475, 1.155, 0.0825, 0.99, 1.8975, 0.825, 1.7325, 0.66, 1.5675, 0.495, 1.4025, 0.33, 1.2375, 0.165, 1.0725, 0, 0.9075, 1.815, 0.7425, 1.65, 0.5775, 1.485, 0.4125, 1.32, 0.2475, 1.155, 0.0825, 0.99, 1.8975, 0.825, 1.7325, 0.66, 1.5675, 0.495, 1.4025, 0.33, 1.2375, 0.165, 1.0725],
  "SoftwareVersions": "syngo_MR_D13D",
  "SpacingBetweenSlices": 1.9,
  "StationName": "AWP66014",
  "TaskName": "retrieval",
  "TotalReadoutTime": 0.0534753,
  "TxRefAmp": 212.129,
  "WipMemBlock": "f58bbdd7-ae94-449f-a454-bc00f189d022||Sequence: vd13d/master r/0735857; Nov 19 2014 09:21:40 by eja",
  "dcmmeta_affine": [
    [-1.8963336944580078, 0.023169243708252907, -0.017060618847608566, 110.73421478271484],
    [0.02385856769979, 1.8947595357894897, -0.07904454320669174, -95.42803192138672],
    [-0.016049668192863464, 0.07910624891519547, 1.8982783555984497, -69.30460357666016],
    [0.0, 0.0, 0.0, 1.0]
],
  "dcmmeta_reorient_transform": [
    [0.0, -1.0, 0.0, 115.0],
    [1.0, 0.0, 0.0, 0.0],
    [0.0, 0.0, 1.0, 0.0],
    [0.0, 0.0, 0.0, 1.0]
],
  "dcmmeta_shape": [116, 116, 72, 289],
  "dcmmeta_slice_dim": 2,
  "dcmmeta_version": 0.6,
  "global": {
    "const": {
      "AcquisitionMatrix": [116, 0, 0, 116],
      "AngioFlag": "N",
      "BitsAllocated": 16,
      "BitsStored": 16,
      "BodyPartExamined": "HEAD",
      "Columns": 1044,
      "EchoNumbers": 1,
      "EchoTime": 30.0,
      "EchoTrainLength": 50,
      "FlipAngle": 81.0,
      "HighBit": 15,
      "ImageOrientationPatient": [0.99988505815025, -0.0125799717746, -0.0084625526891, 0.01221651058452, 0.99905504619091, -0.0417105687999],
      "ImagePositionPatient": [-1004.0480565257, -990.5673827881, -16.055034789147],
      "ImageType": [
        "ORIGINAL",
        "PRIMARY",
        "M",
        "MB",
        "ND",
        "MOSAIC"
],
      "ImagedNucleus": "1H",
      "ImagingFrequency": 123.260577,
      "InPlanePhaseEncodingDirection": "COL",
      "LargestImagePixelValue": 65535,
      "MRAcquisitionType": "2D",
      "MagneticFieldStrength": 3.0,
      "Manufacturer": "SIEMENS",
      "ManufacturerModelName": "Prisma",
      "Modality": "MR",
      "NumberOfAverages": 1.0,
      "NumberOfPhaseEncodingSteps": 101,
      "PercentPhaseFieldOfView": 100.0,
      "PercentSampling": 100.0,
      "PerformedProcedureStepStartTime": "114738.410000",
      "PhotometricInterpretation": "MONOCHROME2",
      "PixelBandwidth": 1435.0,
      "PixelRepresentation": 0,
      "PixelSpacing": [1.8965517282486, 1.8965517282486],
      "ProtocolName": "mbep2d_bold_MB3_test1",
      "RepetitionTime": 2000.0,
      "Rows": 1044,
      "SAR": 0.04993250279512,
      "SamplesPerPixel": 1,
      "ScanOptions": [
        "PFP",
        "FS"
],
      "ScanningSequence": "EP",
      "SequenceName": "epfid2d1_116",
      "SequenceVariant": [
        "SK",
        "SS"
],
      "SeriesDescription": "mbep2d_bold_MB3_test1",
      "SeriesNumber": 6,
      "SeriesTime": "115905.535000",
      "SliceLocation": -66.2660818265,
      "SliceThickness": 1.8999999761581,
      "SmallestImagePixelValue": 0,
      "SoftwareVersions": "syngo MR D13D",
      "SpacingBetweenSlices": 1.8999999537053,
      "SpecificCharacterSet": "ISO_IR 100",
      "StudyID": "1",
      "StudyTime": "114738.357000",
      "TimeOfLastCalibration": ["123723.000000", "123723.000000"],
      "TransmitCoilName": "Body",
      "VariableFlipAngleFlag": "N",
      "WindowCenterWidthExplanation": "Algo1",
      "dBdt": 0.0},
    "slices": {}
  },
  "time": {
    "samples": {
      "AcquisitionNumber": [1, 2, 3, 4, 5, 6, 7, 8, 9, 10, 11, 12, 13, 14, 15, 16, 17, 18, 19, 20, 21, 22, 23, 24, 25, 26, 27, 28, 29, 30, 31, 32, 33, 34, 35, 36, 37, 38, 39, 40, 41, 42, 43, 44, 45, 46, 47, 48, 49, 50, 51, 52, 53, 54, 55, 56, 57, 58, 59, 60, 61, 62, 63, 64, 65, 66, 67, 68, 69, 70, 71, 72, 73, 74, 75, 76, 77, 78, 79, 80, 81, 82, 83, 84, 85, 86, 87, 88, 89, 90, 91, 92, 93, 94, 95, 96, 97, 98, 99, 100, 101, 102, 103, 104, 105, 106, 107, 108, 109, 110, 111, 112, 113, 114, 115, 116, 117, 118, 119, 120, 121, 122, 123, 124, 125, 126, 127, 128, 129, 130, 131, 132, 133, 134, 135, 136, 137, 138, 139, 140, 141, 142, 143, 144, 145, 146, 147, 148, 149, 150, 151, 152, 153, 154, 155, 156, 157, 158, 159, 160, 161, 162, 163, 164, 165, 166, 167, 168, 169, 170, 171, 172, 173, 174, 175, 176, 177, 178, 179, 180, 181, 182, 183, 184, 185, 186, 187, 188, 189, 190, 191, 192, 193, 194, 195, 196, 197, 198, 199, 200, 201, 202, 203, 204, 205, 206, 207, 208, 209, 210, 211, 212, 213, 214, 215, 216, 217, 218, 219, 220, 221, 222, 223, 224, 225, 226, 227, 228, 229, 230, 231, 232, 233, 234, 235, 236, 237, 238, 239, 240, 241, 242, 243, 244, 245, 246, 247, 248, 249, 250, 251, 252, 253, 254, 255, 256, 257, 258, 259, 260, 261, 262, 263, 264, 265, 266, 267, 268, 269, 270, 271, 272, 273, 274, 275, 276, 277, 278, 279, 280, 281, 282, 283, 284, 285, 286, 287, 288, 289],
      "AcquisitionTime": ["115854.085000", "115856.085000", "115858.085000", "115900.085000", "115902.085000", "115904.085000", "115906.085000", "115908.085000", "115910.085000", "115912.085000", "115914.085000", "115916.085000", "115918.085000", "115920.085000", "115922.085000", "115924.085000", "115926.085000", "115928.085000", "115930.085000", "115932.085000", "115934.085000", "115936.085000", "115938.085000", "115940.085000", "115942.085000", "115944.085000", "115946.085000", "115948.085000", "115950.085000", "115952.085000", "115954.085000", "115956.085000", "115958.085000", "120000.085000", "120002.085000", "120004.085000", "120006.085000", "120008.085000", "120010.085000", "120012.085000", "120014.085000", "120016.085000", "120018.085000", "120020.085000", "120022.085000", "120024.085000", "120026.085000", "120028.085000", "120030.085000", "120032.085000", "120034.085000", "120036.085000", "120038.085000", "120040.085000", "120042.085000", "120044.085000", "120046.085000", "120048.085000", "120050.085000", "120052.085000", "120054.085000", "120056.085000", "120058.085000", "120100.085000", "120102.085000", "120104.085000", "120106.085000", "120108.085000", "120110.085000", "120112.085000", "120114.085000", "120116.085000", "120118.085000", "120120.085000", "120122.085000", "120124.085000", "120126.085000", "120128.085000", "120130.085000", "120132.085000", "120134.085000", "120136.085000", "120138.085000", "120140.085000", "120142.085000", "120144.085000", "120146.085000", "120148.085000", "120150.085000", "120152.085000", "120154.085000", "120156.085000", "120158.085000", "120200.085000", "120202.085000", "120204.085000", "120206.085000", "120208.085000", "120210.085000", "120212.085000", "120214.085000", "120216.085000", "120218.085000", "120220.085000", "120222.085000", "120224.085000", "120226.085000", "120228.085000", "120230.085000", "120232.085000", "120234.085000", "120236.085000", "120238.085000", "120240.085000", "120242.085000", "120244.085000", "120246.085000", "120248.085000", "120250.085000", "120252.085000", "120254.085000", "120256.085000", "120258.085000", "120300.085000", "120302.085000", "120304.085000", "120306.085000", "120308.085000", "120310.085000", "120312.085000", "120314.085000", "120316.085000", "120318.085000", "120320.085000", "120322.085000", "120324.085000", "120326.085000", "120328.085000", "120330.085000", "120332.085000", "120334.085000", "120336.085000", "120338.085000", "120340.085000", "120342.085000", "120344.085000", "120346.085000", "120348.085000", "120350.085000", "120352.085000", "120354.085000", "120356.085000", "120358.085000", "120400.085000", "120402.085000", "120404.085000", "120406.085000", "120408.085000", "120410.085000", "120412.085000", "120414.085000", "120416.085000", "120418.085000", "120420.085000", "120422.085000", "120424.085000", "120426.085000", "120428.085000", "120430.085000", "120432.085000", "120434.085000", "120436.085000", "120438.085000", "120440.085000", "120442.085000", "120444.085000", "120446.085000", "120448.085000", "120450.085000", "120452.085000", "120454.085000", "120456.085000", "120458.085000", "120500.085000", "120502.085000", "120504.085000", "120506.085000", "120508.085000", "120510.085000", "120512.085000", "120514.085000", "120516.085000", "120518.085000", "120520.085000", "120522.085000", "120524.085000", "120526.085000", "120528.085000", "120530.085000", "120532.085000", "120534.085000", "120536.085000", "120538.085000", "120540.085000", "120542.085000", "120544.085000", "120546.085000", "120548.085000", "120550.085000", "120552.085000", "120554.085000", "120556.085000", "120558.085000", "120600.085000", "120602.085000", "120604.085000", "120606.085000", "120608.085000", "120610.087500", "120612.087500", "120614.087500", "120616.087500", "120618.087500", "120620.087500", "120622.087500", "120624.087500", "120626.087500", "120628.087500", "120630.087500", "120632.087500", "120634.087500", "120636.087500", "120638.087500", "120640.087500", "120642.087500", "120644.087500", "120646.087500", "120648.087500", "120650.087500", "120652.087500", "120654.087500", "120656.087500", "120658.087500", "120700.087500", "120702.087500", "120704.087500", "120706.087500", "120708.087500", "120710.087500", "120712.087500", "120714.087500", "120716.087500", "120718.087500", "120720.087500", "120722.087500", "120724.087500", "120726.087500", "120728.087500", "120730.087500", "120732.087500", "120734.087500", "120736.087500", "120738.087500", "120740.087500", "120742.087500", "120744.087500", "120746.087500", "120748.087500", "120750.087500", "120752.087500", "120754.087500", "120756.087500", "120758.087500", "120800.087500", "120802.087500", "120804.087500", "120806.087500", "120808.087500", "120810.087500", "120812.087500", "120814.087500", "120816.087500", "120818.087500", "120820.087500", "120822.087500", "120824.087500", "120826.087500", "120828.087500", "120830.087500"],
      "ContentTime": ["115905.541000", "115906.534000", "115906.539000", "115907.535000", "115908.534000", "115908.538000", "115909.534000", "115911.035000", "115913.035000", "115915.036000", "115917.035000", "115919.035000", "115921.035000", "115923.035000", "115925.035000", "115927.035000", "115929.035000", "115931.035000", "115933.036000", "115935.035000", "115937.036000", "115939.035000", "115941.035000", "115943.035000", "115945.035000", "115947.035000", "115949.036000", "115951.036000", "115953.035000", "115955.035000", "115957.035000", "115959.034000", "120001.035000", "120003.036000", "120005.035000", "120007.035000", "120009.035000", "120011.036000", "120013.035000", "120015.035000", "120017.036000", "120019.035000", "120021.035000", "120023.035000", "120025.035000", "120027.035000", "120029.035000", "120031.034000", "120033.036000", "120035.035000", "120037.035000", "120039.035000", "120041.035000", "120043.035000", "120045.035000", "120047.035000", "120049.036000", "120051.034000", "120053.035000", "120055.035000", "120057.035000", "120059.035000", "120101.035000", "120103.034000", "120105.034000", "120107.034000", "120109.035000", "120111.035000", "120113.035000", "120115.033000", "120117.035000", "120119.034000", "120121.035000", "120123.033000", "120125.034000", "120127.034000", "120129.033000", "120131.033000", "120133.034000", "120135.034000", "120137.034000", "120139.034000", "120141.034000", "120143.034000", "120145.034000", "120147.034000", "120149.034000", "120151.033000", "120153.034000", "120155.034000", "120157.034000", "120159.034000", "120201.034000", "120203.034000", "120205.034000", "120207.035000", "120209.034000", "120211.034000", "120213.034000", "120215.034000", "120217.034000", "120219.034000", "120221.034000", "120223.034000", "120225.033000", "120227.034000", "120229.034000", "120231.034000", "120233.034000", "120235.034000", "120237.035000", "120239.034000", "120241.034000", "120243.034000", "120245.034000", "120247.034000", "120249.034000", "120251.034000", "120253.034000", "120255.034000", "120257.034000", "120259.044000", "120301.034000", "120303.034000", "120305.034000", "120307.033000", "120309.034000", "120311.034000", "120313.034000", "120315.055000", "120317.034000", "120319.034000", "120321.034000", "120323.034000", "120325.033000", "120327.037000", "120329.034000", "120331.034000", "120333.034000", "120335.034000", "120337.034000", "120339.034000", "120341.034000", "120343.034000", "120345.034000", "120347.034000", "120349.034000", "120351.054000", "120353.033000", "120355.034000", "120357.033000", "120359.034000", "120401.033000", "120403.033000", "120405.533000", "120407.034000", "120409.033000", "120411.033000", "120413.033000", "120415.033000", "120417.053000", "120419.053000", "120421.033000", "120423.033000", "120425.034000", "120427.034000", "120429.033000", "120431.038000", "120433.034000", "120435.033000", "120437.033000", "120439.033000", "120441.033000", "120443.034000", "120445.034000", "120447.034000", "120449.034000", "120451.033000", "120453.033000", "120455.034000", "120457.034000", "120459.034000", "120501.033000", "120503.034000", "120505.034000", "120507.034000", "120509.034000", "120511.034000", "120513.034000", "120515.034000", "120517.035000", "120519.038000", "120521.036000", "120523.034000", "120525.036000", "120527.034000", "120529.034000", "120531.034000", "120533.034000", "120535.034000", "120537.034000", "120539.034000", "120541.035000", "120543.034000", "120545.033000", "120547.034000", "120549.034000", "120551.034000", "120553.034000", "120555.034000", "120557.034000", "120559.034000", "120601.034000", "120603.034000", "120605.036000", "120607.034000", "120609.034000", "120611.034000", "120613.034000", "120615.036000", "120617.034000", "120619.034000", "120621.033000", "120623.034000", "120625.036000", "120627.034000", "120629.034000", "120631.034000", "120633.035000", "120635.034000", "120637.034000", "120639.034000", "120641.034000", "120643.034000", "120645.034000", "120647.033000", "120649.035000", "120651.034000", "120653.034000", "120655.034000", "120657.034000", "120659.034000", "120701.034000", "120703.034000", "120705.034000", "120707.034000", "120709.034000", "120711.034000", "120713.034000", "120715.034000", "120717.034000", "120719.034000", "120721.034000", "120723.034000", "120725.034000", "120727.035000", "120729.034000", "120731.034000", "120733.034000", "120735.034000", "120737.034000", "120739.034000", "120741.034000", "120743.034000", "120745.034000", "120747.034000", "120749.034000", "120751.034000", "120753.034000", "120755.034000", "120757.034000", "120759.034000", "120801.034000", "120803.034000", "120805.034000", "120807.034000", "120809.034000", "120811.034000", "120813.034000", "120815.034000", "120817.034000", "120819.034000", "120821.034000", "120823.034000", "120825.034000", "120827.034000", "120829.050000", "120831.035000", "120832.642000"],
      "InstanceCreationTime": ["115905.541000", "115906.534000", "115906.539000", "115907.535000", "115908.534000", "115908.538000", "115909.534000", "115911.035000", "115913.035000", "115915.036000", "115917.035000", "115919.035000", "115921.035000", "115923.035000", "115925.035000", "115927.035000", "115929.035000", "115931.035000", "115933.036000", "115935.035000", "115937.036000", "115939.035000", "115941.035000", "115943.035000", "115945.035000", "115947.035000", "115949.036000", "115951.036000", "115953.035000", "115955.035000", "115957.035000", "115959.034000", "120001.035000", "120003.036000", "120005.035000", "120007.035000", "120009.035000", "120011.036000", "120013.035000", "120015.035000", "120017.036000", "120019.035000", "120021.035000", "120023.035000", "120025.035000", "120027.035000", "120029.035000", "120031.034000", "120033.036000", "120035.035000", "120037.035000", "120039.035000", "120041.035000", "120043.035000", "120045.035000", "120047.035000", "120049.036000", "120051.034000", "120053.035000", "120055.035000", "120057.035000", "120059.035000", "120101.035000", "120103.034000", "120105.034000", "120107.034000", "120109.035000", "120111.035000", "120113.035000", "120115.033000", "120117.035000", "120119.034000", "120121.035000", "120123.033000", "120125.034000", "120127.034000", "120129.033000", "120131.033000", "120133.034000", "120135.034000", "120137.034000", "120139.034000", "120141.034000", "120143.034000", "120145.034000", "120147.034000", "120149.034000", "120151.033000", "120153.034000", "120155.034000", "120157.034000", "120159.034000", "120201.034000", "120203.034000", "120205.034000", "120207.035000", "120209.034000", "120211.034000", "120213.034000", "120215.034000", "120217.034000", "120219.034000", "120221.034000", "120223.034000", "120225.033000", "120227.034000", "120229.034000", "120231.034000", "120233.034000", "120235.034000", "120237.035000", "120239.034000", "120241.034000", "120243.034000", "120245.034000", "120247.034000", "120249.034000", "120251.034000", "120253.034000", "120255.034000", "120257.034000", "120259.044000", "120301.034000", "120303.034000", "120305.034000", "120307.033000", "120309.034000", "120311.034000", "120313.034000", "120315.055000", "120317.034000", "120319.034000", "120321.034000", "120323.034000", "120325.033000", "120327.037000", "120329.034000", "120331.034000", "120333.034000", "120335.034000", "120337.034000", "120339.034000", "120341.034000", "120343.034000", "120345.034000", "120347.034000", "120349.034000", "120351.054000", "120353.033000", "120355.034000", "120357.033000", "120359.034000", "120401.033000", "120403.033000", "120405.533000", "120407.034000", "120409.033000", "120411.033000", "120413.033000", "120415.033000", "120417.053000", "120419.053000", "120421.033000", "120423.033000", "120425.034000", "120427.034000", "120429.033000", "120431.038000", "120433.034000", "120435.033000", "120437.033000", "120439.033000", "120441.033000", "120443.034000", "120445.034000", "120447.034000", "120449.034000", "120451.033000", "120453.033000", "120455.034000", "120457.034000", "120459.034000", "120501.033000", "120503.034000", "120505.034000", "120507.034000", "120509.034000", "120511.034000", "120513.034000", "120515.034000", "120517.035000", "120519.038000", "120521.036000", "120523.034000", "120525.036000", "120527.034000", "120529.034000", "120531.034000", "120533.034000", "120535.034000", "120537.034000", "120539.034000", "120541.035000", "120543.034000", "120545.033000", "120547.034000", "120549.034000", "120551.034000", "120553.034000", "120555.034000", "120557.034000", "120559.034000", "120601.034000", "120603.034000", "120605.036000", "120607.034000", "120609.034000", "120611.034000", "120613.034000", "120615.036000", "120617.034000", "120619.034000", "120621.033000", "120623.034000", "120625.036000", "120627.034000", "120629.034000", "120631.034000", "120633.035000", "120635.034000", "120637.034000", "120639.034000", "120641.034000", "120643.034000", "120645.034000", "120647.033000", "120649.035000", "120651.034000", "120653.034000", "120655.034000", "120657.034000", "120659.034000", "120701.034000", "120703.034000", "120705.034000", "120707.034000", "120709.034000", "120711.034000", "120713.034000", "120715.034000", "120717.034000", "120719.034000", "120721.034000", "120723.034000", "120725.034000", "120727.035000", "120729.034000", "120731.034000", "120733.034000", "120735.034000", "120737.034000", "120739.034000", "120741.034000", "120743.034000", "120745.034000", "120747.034000", "120749.034000", "120751.034000", "120753.034000", "120755.034000", "120757.034000", "120759.034000", "120801.034000", "120803.034000", "120805.034000", "120807.034000", "120809.034000", "120811.034000", "120813.034000", "120815.034000", "120817.034000", "120819.034000", "120821.034000", "120823.034000", "120825.034000", "120827.034000", "120829.050000", "120831.035000", "120832.642000"],
      "InstanceNumber": [1, 2, 3, 4, 5, 6, 7, 8, 9, 10, 11, 12, 13, 14, 15, 16, 17, 18, 19, 20, 21, 22, 23, 24, 25, 26, 27, 28, 29, 30, 31, 32, 33, 34, 35, 36, 37, 38, 39, 40, 41, 42, 43, 44, 45, 46, 47, 48, 49, 50, 51, 52, 53, 54, 55, 56, 57, 58, 59, 60, 61, 62, 63, 64, 65, 66, 67, 68, 69, 70, 71, 72, 73, 74, 75, 76, 77, 78, 79, 80, 81, 82, 83, 84, 85, 86, 87, 88, 89, 90, 91, 92, 93, 94, 95, 96, 97, 98, 99, 100, 101, 102, 103, 104, 105, 106, 107, 108, 109, 110, 111, 112, 113, 114, 115, 116, 117, 118, 119, 120, 121, 122, 123, 124, 125, 126, 127, 128, 129, 130, 131, 132, 133, 134, 135, 136, 137, 138, 139, 140, 141, 142, 143, 144, 145, 146, 147, 148, 149, 150, 151, 152, 153, 154, 155, 156, 157, 158, 159, 160, 161, 162, 163, 164, 165, 166, 167, 168, 169, 170, 171, 172, 173, 174, 175, 176, 177, 178, 179, 180, 181, 182, 183, 184, 185, 186, 187, 188, 189, 190, 191, 192, 193, 194, 195, 196, 197, 198, 199, 200, 201, 202, 203, 204, 205, 206, 207, 208, 209, 210, 211, 212, 213, 214, 215, 216, 217, 218, 219, 220, 221, 222, 223, 224, 225, 226, 227, 228, 229, 230, 231, 232, 233, 234, 235, 236, 237, 238, 239, 240, 241, 242, 243, 244, 245, 246, 247, 248, 249, 250, 251, 252, 253, 254, 255, 256, 257, 258, 259, 260, 261, 262, 263, 264, 265, 266, 267, 268, 269, 270, 271, 272, 273, 274, 275, 276, 277, 278, 279, 280, 281, 282, 283, 284, 285, 286, 287, 288, 289],
      "WindowCenter": [15835.0, 15829.0, 15819.0, 15818.0, 15807.0, 15812.0, 15805.0, 15815.0, 15818.0, 15825.0, 15816.0, 15810.0, 15816.0, 15812.0, 15819.0, 15811.0, 15807.0, 15808.0, 15809.0, 15813.0, 15804.0, 15822.0, 15809.0, 15811.0, 15820.0, 15810.0, 15794.0, 15822.0, 15800.0, 15821.0, 15826.0, 15796.0, 15807.0, 15829.0, 15830.0, 15818.0, 15818.0, 15828.0, 15814.0, 15824.0, 15826.0, 15834.0, 15823.0, 15824.0, 15823.0, 15826.0, 15825.0, 15829.0, 15823.0, 15820.0, 15823.0, 15829.0, 15831.0, 15826.0, 15831.0, 15830.0, 15832.0, 15842.0, 15835.0, 15833.0, 15840.0, 15840.0, 15827.0, 15837.0, 15830.0, 15829.0, 15819.0, 15812.0, 15822.0, 15821.0, 15829.0, 15837.0, 15834.0, 15852.0, 15837.0, 15840.0, 15841.0, 15846.0, 15832.0, 15839.0, 15832.0, 15830.0, 15841.0, 15856.0, 15834.0, 15832.0, 15839.0, 15842.0, 15836.0, 15841.0, 15837.0, 15827.0, 15830.0, 15820.0, 15827.0, 15846.0, 15838.0, 15823.0, 15830.0, 15833.0, 15829.0, 15843.0, 15855.0, 15840.0, 15837.0, 15833.0, 15838.0, 15841.0, 15831.0, 15835.0, 15828.0, 15838.0, 15839.0, 15843.0, 15846.0, 15844.0, 15852.0, 15852.0, 15854.0, 15838.0, 15827.0, 15845.0, 15844.0, 15835.0, 15837.0, 15845.0, 15847.0, 15839.0, 15846.0, 15851.0, 15850.0, 15838.0, 15847.0, 15837.0, 15835.0, 15837.0, 15853.0, 15857.0, 15855.0, 15841.0, 15847.0, 15854.0, 15846.0, 15844.0, 15842.0, 15854.0, 15865.0, 15871.0, 15860.0, 15850.0, 15836.0, 15841.0, 15864.0, 15859.0, 15844.0, 15839.0, 15851.0, 15858.0, 15853.0, 15843.0, 15841.0, 15841.0, 15849.0, 15862.0, 15871.0, 15856.0, 15854.0, 15863.0, 15860.0, 15852.0, 15854.0, 15869.0, 15864.0, 15862.0, 15866.0, 15871.0, 15858.0, 15849.0, 15861.0, 15850.0, 15863.0, 15866.0, 15888.0, 15887.0, 15874.0, 15859.0, 15861.0, 15860.0, 15862.0, 15871.0, 15877.0, 15877.0, 15881.0, 15869.0, 15869.0, 15873.0, 15860.0, 15863.0, 15877.0, 15883.0, 15871.0, 15868.0, 15859.0, 15862.0, 15859.0, 15869.0, 15867.0, 15871.0, 15856.0, 15875.0, 15879.0, 15877.0, 15861.0, 15862.0, 15864.0, 15863.0, 15874.0, 15884.0, 15886.0, 15880.0, 15874.0, 15877.0, 15885.0, 15887.0, 15881.0, 15868.0, 15867.0, 15874.0, 15891.0, 15906.0, 15893.0, 15878.0, 15878.0, 15892.0, 15874.0, 15870.0, 15883.0, 15875.0, 15878.0, 15881.0, 15872.0, 15880.0, 15883.0, 15886.0, 15883.0, 15887.0, 15884.0, 15867.0, 15871.0, 15854.0, 15870.0, 15872.0, 15897.0, 15887.0, 15886.0, 15871.0, 15869.0, 15879.0, 15890.0, 15886.0, 15886.0, 15884.0, 15890.0, 15884.0, 15897.0, 15884.0, 15888.0, 15895.0, 15897.0, 15887.0, 15891.0, 15889.0, 15888.0, 15894.0, 15883.0, 15887.0, 15886.0, 15887.0, 15875.0, 15887.0, 15891.0, 15880.0, 15891.0, 15885.0, 15880.0, 15901.0, 15914.0, 15905.0, 15891.0],
      "WindowWidth": [43843.0, 43710.0, 43757.0, 43771.0, 43731.0, 43763.0, 43844.0, 43867.0, 43857.0, 43781.0, 43796.0, 43778.0, 43852.0, 43845.0, 43811.0, 43774.0, 43730.0, 43788.0, 43802.0, 43749.0, 43800.0, 43814.0, 43759.0, 43778.0, 43827.0, 43818.0, 43828.0, 43757.0, 43752.0, 43785.0, 43777.0, 43734.0, 43800.0, 43863.0, 43794.0, 43782.0, 43798.0, 43764.0, 43791.0, 43816.0, 43775.0, 43712.0, 43748.0, 43747.0, 43785.0, 43791.0, 43733.0, 43708.0, 43719.0, 43757.0, 43788.0, 43736.0, 43696.0, 43731.0, 43740.0, 43697.0, 43782.0, 43791.0, 43757.0, 43741.0, 43762.0, 43778.0, 43762.0, 43801.0, 43735.0, 43693.0, 43643.0, 43677.0, 43715.0, 43729.0, 43779.0, 43783.0, 43754.0, 43742.0, 43809.0, 43802.0, 43746.0, 43754.0, 43782.0, 43756.0, 43738.0, 43736.0, 43776.0, 43790.0, 43812.0, 43779.0, 43773.0, 43776.0, 43698.0, 43748.0, 43774.0, 43731.0, 43720.0, 43712.0, 43750.0, 43795.0, 43760.0, 43704.0, 43705.0, 43710.0, 43708.0, 43766.0, 43763.0, 43734.0, 43686.0, 43708.0, 43688.0, 43749.0, 43750.0, 43684.0, 43734.0, 43715.0, 43701.0, 43736.0, 43755.0, 43767.0, 43804.0, 43829.0, 43714.0, 43672.0, 43664.0, 43667.0, 43735.0, 43767.0, 43758.0, 43709.0, 43728.0, 43790.0, 43836.0, 43797.0, 43698.0, 43674.0, 43726.0, 43688.0, 43728.0, 43829.0, 43829.0, 43805.0, 43764.0, 43720.0, 43795.0, 43761.0, 43737.0, 43680.0, 43720.0, 43777.0, 43828.0, 43836.0, 43738.0, 43657.0, 43686.0, 43720.0, 43728.0, 43665.0, 43637.0, 43690.0, 43744.0, 43749.0, 43703.0, 43722.0, 43703.0, 43719.0, 43759.0, 43771.0, 43790.0, 43732.0, 43730.0, 43752.0, 43711.0, 43632.0, 43745.0, 43774.0, 43728.0, 43699.0, 43702.0, 43749.0, 43778.0, 43840.0, 43752.0, 43728.0, 43770.0, 43804.0, 43825.0, 43837.0, 43794.0, 43722.0, 43726.0, 43724.0, 43770.0, 43722.0, 43797.0, 43851.0, 43786.0, 43705.0, 43710.0, 43792.0, 43750.0, 43742.0, 43755.0, 43761.0, 43765.0, 43746.0, 43708.0, 43726.0, 43796.0, 43777.0, 43732.0, 43705.0, 43733.0, 43739.0, 43758.0, 43743.0, 43751.0, 43751.0, 43711.0, 43743.0, 43810.0, 43846.0, 43810.0, 43802.0, 43806.0, 43840.0, 43852.0, 43822.0, 43800.0, 43759.0, 43759.0, 43809.0, 43899.0, 43915.0, 43842.0, 43813.0, 43824.0, 43799.0, 43739.0, 43747.0, 43801.0, 43767.0, 43727.0, 43757.0, 43793.0, 43801.0, 43791.0, 43851.0, 43885.0, 43849.0, 43776.0, 43759.0, 43746.0, 43732.0, 43763.0, 43849.0, 43861.0, 43794.0, 43779.0, 43744.0, 43730.0, 43759.0, 43784.0, 43766.0, 43778.0, 43803.0, 43767.0, 43749.0, 43748.0, 43779.0, 43810.0, 43814.0, 43789.0, 43806.0, 43783.0, 43741.0, 43754.0, 43784.0, 43774.0, 43763.0, 43776.0, 43764.0, 43778.0, 43763.0, 43739.0, 43757.0, 43782.0, 43792.0, 43816.0, 43865.0, 43877.0, 43840.0, 43813.0]
    },
    "slices": {}
  }
}