{
  "AcquisitionMatrixPE": 116,
  "AcquisitionNumber": 1,
  "AcquisitionTime": "12:43:22.280000",
  "BandwidthPerPixelPhaseEncode": 18.539,
  "BaseResolution": 116,
  "BodyPartExamined": "HEAD",
  "ConsistencyInfo": "N4_VD13D_LATEST_20130810",
  "ConversionSoftware": "dcm2niix",
  "ConversionSoftwareVersion": "v1.0.20190410  (JP2:OpenJPEG) (JP-LS:CharLS) GCC5.5.0",
  "DerivedVendorReportedEchoSpacing": 0.000930006,
  "DeviceSerialNumber": "66014",
  "DwellTime": 3e-06,
  "EchoTime": 0.03,
  "EchoTrainLength": 50,
  "EffectiveEchoSpacing": 0.000465003,
  "FlipAngle": 81,
  "ImageComments": "Unaliased_MB3_PE4",
  "ImageOrientationPatientDICOM": [0.999885, -0.01258, -0.00846255, 0.0122165, 0.999055, -0.0417106],
  "ImageType": [
    "ORIGINAL",
    "PRIMARY",
    "M",
    "MB",
    "ND",
    "MOSAIC"
],
  "ImagingFrequency": 123.261,
  "InPlanePhaseEncodingDirectionDICOM": "COL",
  "InstitutionAddress": "Yiheyuan_Road_5_Beijing_Haidian_CN_100871",
  "InstitutionName": "Peking_Univeristy",
  "InstitutionalDepartmentName": "Department",
  "MRAcquisitionType": "2D",
  "MagneticFieldStrength": 3,
  "Manufacturer": "Siemens",
  "ManufacturersModelName": "Prisma",
  "Modality": "MR",
  "MultibandAccelerationFactor": 3,
  "ParallelReductionFactorInPlane": 2,
  "PartialFourier": 0.875,
  "PatientPosition": "HFS",
  "PercentPhaseFOV": 100,
  "PhaseEncodingDirection": "j-",
  "PhaseEncodingSteps": 101,
  "PhaseResolution": 1,
  "PixelBandwidth": 1435,
  "ProcedureStepDescription": "Research_Projects_64CH",
  "ProtocolName": "mbep2d_bold_MB3_loca3",
  "PulseSequenceDetails": "%CustomerSeq%_cmrr_mbep2d_bold",
  "ReceiveCoilActiveElements": "HC1-6",
  "ReceiveCoilName": "HeadNeck_64",
  "ReconMatrixPE": 116,
  "RefLinesPE": 44,
  "RepetitionTime": 2,
  "SAR": 0.0490005,
  "ScanOptions": "PFP_FS",
  "ScanningSequence": "EP",
  "SequenceName": "epfid2d1_116",
  "SequenceVariant": "SK_SS",
  "SeriesDescription": "mbep2d_bold_MB3_loca3",
  "SeriesNumber": 11,
  "ShimSetting": [-3450, -2110, -1939, 407, -6, -316, 73, 25],
  "SliceThickness": 1.9,
  "SliceTiming": [0, 0.9075, 1.815, 0.7425, 1.65, 0.5775, 1.485, 0.4125, 1.32, 0.2475, 1.155, 0.0825, 0.99, 1.8975, 0.825, 1.7325, 0.66, 1.5675, 0.495, 1.4025, 0.33, 1.2375, 0.165, 1.0725, 0, 0.9075, 1.815, 0.7425, 1.65, 0.5775, 1.485, 0.4125, 1.32, 0.2475, 1.155, 0.0825, 0.99, 1.8975, 0.825, 1.7325, 0.66, 1.5675, 0.495, 1.4025, 0.33, 1.2375, 0.165, 1.0725, 0, 0.9075, 1.815, 0.7425, 1.65, 0.5775, 1.485, 0.4125, 1.32, 0.2475, 1.155, 0.0825, 0.99, 1.8975, 0.825, 1.7325, 0.66, 1.5675, 0.495, 1.4025, 0.33, 1.2375, 0.165, 1.0725],
  "SoftwareVersions": "syngo_MR_D13D",
  "SpacingBetweenSlices": 1.9,
  "StationName": "AWP66014",
  "TaskName": "localizer",
  "TotalReadoutTime": 0.0534753,
  "TxRefAmp": 212.129,
  "WipMemBlock": "b8125fee-ecb5-4e22-8c02-8c633e6e296b||Sequence: vd13d/master r/0735857; Nov 19 2014 09:21:40 by eja",
  "dcmmeta_affine": [
    [-1.8963336944580078, 0.023169243708252907, -0.017060618847608566, 110.73421478271484],
    [0.02385856769979, 1.8947595357894897, -0.07904454320669174, -95.42803192138672],
    [-0.016049668192863464, 0.07910624891519547, 1.8982783555984497, -69.30460357666016],
    [0.0, 0.0, 0.0, 1.0]
],
  "dcmmeta_reorient_transform": [
    [0.0, -1.0, 0.0, 115.0],
    [1.0, 0.0, 0.0, 0.0],
    [0.0, 0.0, 1.0, 0.0],
    [0.0, 0.0, 0.0, 1.0]
],
  "dcmmeta_shape": [116, 116, 72, 164],
  "dcmmeta_slice_dim": 2,
  "dcmmeta_version": 0.6,
  "global": {
    "const": {
      "AcquisitionMatrix": [116, 0, 0, 116],
      "AngioFlag": "N",
      "BitsAllocated": 16,
      "BitsStored": 16,
      "BodyPartExamined": "HEAD",
      "Columns": 1044,
      "EchoNumbers": 1,
      "EchoTime": 30.0,
      "EchoTrainLength": 50,
      "FlipAngle": 81.0,
      "HighBit": 15,
      "ImageOrientationPatient": [0.99988505815025, -0.0125799717746, -0.0084625526891, 0.01221651058452, 0.99905504619091, -0.0417105687999],
      "ImagePositionPatient": [-1004.0480565257, -990.5673827881, -16.055034789147],
      "ImageType": [
        "ORIGINAL",
        "PRIMARY",
        "M",
        "MB",
        "ND",
        "MOSAIC"
],
      "ImagedNucleus": "1H",
      "ImagingFrequency": 123.26058,
      "InPlanePhaseEncodingDirection": "COL",
      "LargestImagePixelValue": 65535,
      "MRAcquisitionType": "2D",
      "MagneticFieldStrength": 3.0,
      "Manufacturer": "SIEMENS",
      "ManufacturerModelName": "Prisma",
      "Modality": "MR",
      "NumberOfAverages": 1.0,
      "NumberOfPhaseEncodingSteps": 101,
      "PercentPhaseFieldOfView": 100.0,
      "PercentSampling": 100.0,
      "PerformedProcedureStepStartTime": "114738.410000",
      "PhotometricInterpretation": "MONOCHROME2",
      "PixelBandwidth": 1435.0,
      "PixelRepresentation": 0,
      "PixelSpacing": [1.8965517282486, 1.8965517282486],
      "ProtocolName": "mbep2d_bold_MB3_loca3",
      "RepetitionTime": 2000.0,
      "Rows": 1044,
      "SAR": 0.04900048114709,
      "SamplesPerPixel": 1,
      "ScanOptions": [
        "PFP",
        "FS"
],
      "ScanningSequence": "EP",
      "SequenceName": "epfid2d1_116",
      "SequenceVariant": [
        "SK",
        "SS"
],
      "SeriesDescription": "mbep2d_bold_MB3_loca3",
      "SeriesNumber": 11,
      "SeriesTime": "124334.063000",
      "SliceLocation": -66.2660818265,
      "SliceThickness": 1.8999999761581,
      "SmallestImagePixelValue": 0,
      "SoftwareVersions": "syngo MR D13D",
      "SpacingBetweenSlices": 1.8999999537053,
      "SpecificCharacterSet": "ISO_IR 100",
      "StudyID": "1",
      "StudyTime": "114738.357000",
      "TimeOfLastCalibration": ["123723.000000", "123723.000000"],
      "TransmitCoilName": "Body",
      "VariableFlipAngleFlag": "N",
      "WindowCenterWidthExplanation": "Algo1",
      "dBdt": 0.0},
    "slices": {}
  },
  "time": {
    "samples": {
      "AcquisitionNumber": [1, 2, 3, 4, 5, 6, 7, 8, 9, 10, 11, 12, 13, 14, 15, 16, 17, 18, 19, 20, 21, 22, 23, 24, 25, 26, 27, 28, 29, 30, 31, 32, 33, 34, 35, 36, 37, 38, 39, 40, 41, 42, 43, 44, 45, 46, 47, 48, 49, 50, 51, 52, 53, 54, 55, 56, 57, 58, 59, 60, 61, 62, 63, 64, 65, 66, 67, 68, 69, 70, 71, 72, 73, 74, 75, 76, 77, 78, 79, 80, 81, 82, 83, 84, 85, 86, 87, 88, 89, 90, 91, 92, 93, 94, 95, 96, 97, 98, 99, 100, 101, 102, 103, 104, 105, 106, 107, 108, 109, 110, 111, 112, 113, 114, 115, 116, 117, 118, 119, 120, 121, 122, 123, 124, 125, 126, 127, 128, 129, 130, 131, 132, 133, 134, 135, 136, 137, 138, 139, 140, 141, 142, 143, 144, 145, 146, 147, 148, 149, 150, 151, 152, 153, 154, 155, 156, 157, 158, 159, 160, 161, 162, 163, 164],
      "AcquisitionTime": ["124322.280000", "124324.280000", "124326.280000", "124328.280000", "124330.280000", "124332.280000", "124334.280000", "124336.280000", "124338.280000", "124340.280000", "124342.280000", "124344.280000", "124346.280000", "124348.280000", "124350.280000", "124352.280000", "124354.280000", "124356.280000", "124358.280000", "124400.280000", "124402.280000", "124404.280000", "124406.280000", "124408.280000", "124410.280000", "124412.280000", "124414.280000", "124416.280000", "124418.280000", "124420.280000", "124422.280000", "124424.280000", "124426.280000", "124428.280000", "124430.280000", "124432.280000", "124434.280000", "124436.280000", "124438.280000", "124440.280000", "124442.280000", "124444.280000", "124446.280000", "124448.280000", "124450.280000", "124452.280000", "124454.280000", "124456.280000", "124458.280000", "124500.280000", "124502.280000", "124504.280000", "124506.280000", "124508.280000", "124510.280000", "124512.280000", "124514.280000", "124516.280000", "124518.280000", "124520.280000", "124522.280000", "124524.280000", "124526.280000", "124528.280000", "124530.280000", "124532.280000", "124534.280000", "124536.280000", "124538.282500", "124540.282500", "124542.282500", "124544.282500", "124546.282500", "124548.282500", "124550.282500", "124552.282500", "124554.282500", "124556.282500", "124558.282500", "124600.282500", "124602.282500", "124604.282500", "124606.282500", "124608.282500", "124610.282500", "124612.282500", "124614.282500", "124616.282500", "124618.282500", "124620.282500", "124622.282500", "124624.282500", "124626.282500", "124628.282500", "124630.282500", "124632.282500", "124634.282500", "124636.282500", "124638.282500", "124640.282500", "124642.282500", "124644.282500", "124646.282500", "124648.282500", "124650.282500", "124652.282500", "124654.282500", "124656.282500", "124658.282500", "124700.282500", "124702.282500", "124704.282500", "124706.282500", "124708.282500", "124710.282500", "124712.282500", "124714.282500", "124716.282500", "124718.282500", "124720.282500", "124722.282500", "124724.282500", "124726.282500", "124728.282500", "124730.282500", "124732.282500", "124734.282500", "124736.282500", "124738.282500", "124740.282500", "124742.282500", "124744.282500", "124746.282500", "124748.282500", "124750.282500", "124752.282500", "124754.282500", "124756.282500", "124758.282500", "124800.282500", "124802.282500", "124804.282500", "124806.282500", "124808.282500", "124810.282500", "124812.282500", "124814.282500", "124816.282500", "124818.282500", "124820.282500", "124822.282500", "124824.282500", "124826.282500", "124828.282500", "124830.282500", "124832.282500", "124834.282500", "124836.282500", "124838.282500", "124840.282500", "124842.282500", "124844.282500", "124846.282500", "124848.282500"],
      "ContentTime": ["124334.069000", "124335.062000", "124335.066000", "124336.062000", "124336.066000", "124337.062000", "124338.062000", "124339.061000", "124341.063000", "124343.062000", "124345.062000", "124347.062000", "124349.063000", "124351.064000", "124353.063000", "124355.064000", "124357.063000", "124359.063000", "124401.063000", "124403.063000", "124405.062000", "124407.063000", "124409.063000", "124411.063000", "124413.063000", "124415.063000", "124417.063000", "124419.063000", "124421.061000", "124423.062000", "124425.063000", "124427.063000", "124429.063000", "124431.063000", "124433.063000", "124435.063000", "124437.064000", "124439.063000", "124441.063000", "124443.061000", "124445.063000", "124447.063000", "124449.063000", "124451.063000", "124453.063000", "124455.063000", "124457.061000", "124459.063000", "124501.063000", "124503.063000", "124505.063000", "124507.062000", "124509.062000", "124511.063000", "124513.063000", "124515.061000", "124517.062000", "124519.063000", "124521.063000", "124523.063000", "124525.062000", "124527.061000", "124529.063000", "124531.063000", "124533.063000", "124535.063000", "124537.063000", "124539.063000", "124541.063000", "124543.063000", "124545.063000", "124547.061000", "124549.063000", "124551.061000", "124553.063000", "124555.064000", "124557.064000", "124559.063000", "124601.063000", "124603.063000", "124605.062000", "124607.061000", "124609.063000", "124611.063000", "124613.063000", "124615.063000", "124617.063000", "124619.063000", "124621.063000", "124623.063000", "124625.060000", "124627.063000", "124629.063000", "124631.063000", "124633.063000", "124635.063000", "124637.062000", "124639.064000", "124641.061000", "124643.063000", "124645.063000", "124647.061000", "124649.063000", "124651.062000", "124653.063000", "124655.063000", "124657.063000", "124659.063000", "124701.063000", "124703.062000", "124705.063000", "124707.062000", "124709.063000", "124711.063000", "124713.063000", "124715.063000", "124717.063000", "124719.063000", "124721.063000", "124723.063000", "124725.063000", "124727.063000", "124729.063000", "124731.063000", "124733.063000", "124735.061000", "124737.063000", "124739.063000", "124741.063000", "124743.063000", "124745.063000", "124747.063000", "124749.063000", "124751.063000", "124753.063000", "124755.063000", "124757.063000", "124759.064000", "124801.063000", "124803.063000", "124805.063000", "124807.061000", "124809.063000", "124811.063000", "124813.061000", "124815.063000", "124817.062000", "124819.062000", "124821.063000", "124823.063000", "124825.063000", "124827.062000", "124829.063000", "124831.063000", "124833.063000", "124835.063000", "124837.063000", "124839.062000", "124841.063000", "124843.063000", "124845.062000", "124847.063000", "124849.063000", "124850.724000"],
      "InstanceCreationTime": ["124334.069000", "124335.062000", "124335.066000", "124336.062000", "124336.066000", "124337.062000", "124338.062000", "124339.061000", "124341.063000", "124343.062000", "124345.062000", "124347.062000", "124349.063000", "124351.064000", "124353.063000", "124355.064000", "124357.063000", "124359.063000", "124401.063000", "124403.063000", "124405.062000", "124407.063000", "124409.063000", "124411.063000", "124413.063000", "124415.063000", "124417.063000", "124419.063000", "124421.061000", "124423.062000", "124425.063000", "124427.063000", "124429.063000", "124431.063000", "124433.063000", "124435.063000", "124437.064000", "124439.063000", "124441.063000", "124443.061000", "124445.063000", "124447.063000", "124449.063000", "124451.063000", "124453.063000", "124455.063000", "124457.061000", "124459.063000", "124501.063000", "124503.063000", "124505.063000", "124507.062000", "124509.062000", "124511.063000", "124513.063000", "124515.061000", "124517.062000", "124519.063000", "124521.063000", "124523.063000", "124525.062000", "124527.061000", "124529.063000", "124531.063000", "124533.063000", "124535.063000", "124537.063000", "124539.063000", "124541.063000", "124543.063000", "124545.063000", "124547.061000", "124549.063000", "124551.061000", "124553.063000", "124555.064000", "124557.064000", "124559.063000", "124601.063000", "124603.063000", "124605.062000", "124607.061000", "124609.063000", "124611.063000", "124613.063000", "124615.063000", "124617.063000", "124619.063000", "124621.063000", "124623.063000", "124625.060000", "124627.063000", "124629.063000", "124631.063000", "124633.063000", "124635.063000", "124637.062000", "124639.064000", "124641.061000", "124643.063000", "124645.063000", "124647.061000", "124649.063000", "124651.062000", "124653.063000", "124655.063000", "124657.063000", "124659.063000", "124701.063000", "124703.062000", "124705.063000", "124707.062000", "124709.063000", "124711.063000", "124713.063000", "124715.063000", "124717.063000", "124719.063000", "124721.063000", "124723.063000", "124725.063000", "124727.063000", "124729.063000", "124731.063000", "124733.063000", "124735.061000", "124737.063000", "124739.063000", "124741.063000", "124743.063000", "124745.063000", "124747.063000", "124749.063000", "124751.063000", "124753.063000", "124755.063000", "124757.063000", "124759.064000", "124801.063000", "124803.063000", "124805.063000", "124807.061000", "124809.063000", "124811.063000", "124813.061000", "124815.063000", "124817.062000", "124819.062000", "124821.063000", "124823.063000", "124825.063000", "124827.062000", "124829.063000", "124831.063000", "124833.063000", "124835.063000", "124837.063000", "124839.062000", "124841.063000", "124843.063000", "124845.062000", "124847.063000", "124849.063000", "124850.724000"],
      "InstanceNumber": [1, 2, 3, 4, 5, 6, 7, 8, 9, 10, 11, 12, 13, 14, 15, 16, 17, 18, 19, 20, 21, 22, 23, 24, 25, 26, 27, 28, 29, 30, 31, 32, 33, 34, 35, 36, 37, 38, 39, 40, 41, 42, 43, 44, 45, 46, 47, 48, 49, 50, 51, 52, 53, 54, 55, 56, 57, 58, 59, 60, 61, 62, 63, 64, 65, 66, 67, 68, 69, 70, 71, 72, 73, 74, 75, 76, 77, 78, 79, 80, 81, 82, 83, 84, 85, 86, 87, 88, 89, 90, 91, 92, 93, 94, 95, 96, 97, 98, 99, 100, 101, 102, 103, 104, 105, 106, 107, 108, 109, 110, 111, 112, 113, 114, 115, 116, 117, 118, 119, 120, 121, 122, 123, 124, 125, 126, 127, 128, 129, 130, 131, 132, 133, 134, 135, 136, 137, 138, 139, 140, 141, 142, 143, 144, 145, 146, 147, 148, 149, 150, 151, 152, 153, 154, 155, 156, 157, 158, 159, 160, 161, 162, 163, 164],
      "WindowCenter": [16064.0, 16040.0, 16036.0, 16030.0, 16068.0, 16072.0, 16082.0, 16087.0, 16097.0, 16078.0, 16069.0, 16049.0, 16055.0, 16040.0, 16061.0, 16074.0, 16075.0, 16055.0, 16056.0, 16045.0, 16057.0, 16056.0, 16055.0, 16057.0, 16026.0, 16023.0, 16019.0, 15998.0, 15994.0, 16018.0, 16030.0, 16036.0, 16047.0, 16041.0, 16040.0, 16049.0, 16064.0, 16051.0, 16065.0, 16052.0, 16051.0, 16052.0, 16054.0, 16081.0, 16106.0, 16114.0, 16095.0, 16064.0, 16068.0, 16074.0, 16065.0, 16068.0, 16061.0, 16054.0, 16047.0, 16040.0, 16055.0, 16081.0, 16067.0, 16064.0, 16072.0, 16094.0, 16086.0, 16049.0, 16056.0, 16078.0, 16076.0, 16067.0, 16063.0, 16058.0, 16081.0, 16090.0, 16087.0, 16063.0, 16070.0, 16073.0, 16087.0, 16080.0, 16066.0, 16057.0, 16071.0, 16060.0, 16054.0, 16059.0, 16074.0, 16098.0, 16091.0, 16081.0, 16069.0, 16065.0, 16064.0, 16053.0, 16033.0, 16050.0, 16063.0, 16058.0, 16053.0, 16071.0, 16072.0, 16070.0, 16066.0, 16078.0, 16073.0, 16076.0, 16070.0, 16069.0, 16069.0, 16066.0, 16073.0, 16060.0, 16077.0, 16075.0, 16074.0, 16059.0, 16056.0, 16036.0, 16035.0, 16057.0, 16081.0, 16081.0, 16083.0, 16067.0, 16055.0, 16066.0, 16056.0, 16073.0, 16088.0, 16081.0, 16069.0, 16082.0, 16082.0, 16085.0, 16071.0, 16063.0, 16066.0, 16051.0, 16065.0, 16062.0, 16073.0, 16082.0, 16058.0, 16073.0, 16072.0, 16082.0, 16063.0, 16066.0, 16065.0, 16083.0, 16100.0, 16087.0, 16063.0, 16055.0, 16077.0, 16083.0, 16099.0, 16086.0, 16085.0, 16059.0, 16054.0, 16063.0, 16061.0, 16066.0, 16043.0, 16054.0],
      "WindowWidth": [43939.0, 43833.0, 43798.0, 43809.0, 43887.0, 43948.0, 44000.0, 44007.0, 44059.0, 44065.0, 43985.0, 43882.0, 43847.0, 43834.0, 43911.0, 43952.0, 43962.0, 43888.0, 43832.0, 43893.0, 43904.0, 43951.0, 43940.0, 43889.0, 43727.0, 43619.0, 43547.0, 43484.0, 43520.0, 43575.0, 43684.0, 43675.0, 43686.0, 43707.0, 43751.0, 43747.0, 43792.0, 43873.0, 43858.0, 43814.0, 43762.0, 43803.0, 43862.0, 43959.0, 44079.0, 44045.0, 43926.0, 43840.0, 43802.0, 43786.0, 43831.0, 43831.0, 43768.0, 43664.0, 43672.0, 43748.0, 43822.0, 43872.0, 43886.0, 43910.0, 43976.0, 43968.0, 43834.0, 43700.0, 43778.0, 43895.0, 43867.0, 43802.0, 43785.0, 43866.0, 43999.0, 43993.0, 43895.0, 43784.0, 43848.0, 43978.0, 44006.0, 43944.0, 43801.0, 43796.0, 43806.0, 43813.0, 43778.0, 43812.0, 43923.0, 44004.0, 43969.0, 43909.0, 43907.0, 43902.0, 43884.0, 43829.0, 43783.0, 43844.0, 43922.0, 43921.0, 43954.0, 43961.0, 43933.0, 43906.0, 43918.0, 43942.0, 43937.0, 43952.0, 43932.0, 43889.0, 43894.0, 43889.0, 43894.0, 43895.0, 43995.0, 44006.0, 43936.0, 43772.0, 43716.0, 43721.0, 43747.0, 43852.0, 43917.0, 43946.0, 43919.0, 43891.0, 43864.0, 43876.0, 43933.0, 43995.0, 44007.0, 43945.0, 43919.0, 44016.0, 44012.0, 43960.0, 43824.0, 43732.0, 43775.0, 43830.0, 43873.0, 43923.0, 43921.0, 43901.0, 43895.0, 43978.0, 44018.0, 43931.0, 43884.0, 43847.0, 43931.0, 44060.0, 44061.0, 43977.0, 43841.0, 43835.0, 43941.0, 44045.0, 44087.0, 43990.0, 43902.0, 43861.0, 43888.0, 43938.0, 43908.0, 43814.0, 43793.0, 43846.0]
    },
    "slices": {}
  }
}