{
  "AcquisitionMatrixPE": 116,
  "AcquisitionNumber": 1,
  "AcquisitionTime": "12:30:44.707500",
  "BandwidthPerPixelPhaseEncode": 18.539,
  "BaseResolution": 116,
  "BodyPartExamined": "HEAD",
  "ConsistencyInfo": "N4_VD13D_LATEST_20130810",
  "ConversionSoftware": "dcm2niix",
  "ConversionSoftwareVersion": "v1.0.20190410  (JP2:OpenJPEG) (JP-LS:CharLS) GCC5.5.0",
  "DerivedVendorReportedEchoSpacing": 0.000930006,
  "DeviceSerialNumber": "66014",
  "DwellTime": 3e-06,
  "EchoTime": 0.03,
  "EchoTrainLength": 50,
  "EffectiveEchoSpacing": 0.000465003,
  "FlipAngle": 81,
  "ImageComments": "Unaliased_MB3_PE4",
  "ImageOrientationPatientDICOM": [0.999885, -0.01258, -0.00846255, 0.0122165, 0.999055, -0.0417106],
  "ImageType": [
    "ORIGINAL",
    "PRIMARY",
    "M",
    "MB",
    "ND",
    "MOSAIC"
],
  "ImagingFrequency": 123.261,
  "InPlanePhaseEncodingDirectionDICOM": "COL",
  "InstitutionAddress": "Yiheyuan_Road_5_Beijing_Haidian_CN_100871",
  "InstitutionName": "Peking_Univeristy",
  "InstitutionalDepartmentName": "Department",
  "MRAcquisitionType": "2D",
  "MagneticFieldStrength": 3,
  "Manufacturer": "Siemens",
  "ManufacturersModelName": "Prisma",
  "Modality": "MR",
  "MultibandAccelerationFactor": 3,
  "ParallelReductionFactorInPlane": 2,
  "PartialFourier": 0.875,
  "PatientPosition": "HFS",
  "PercentPhaseFOV": 100,
  "PhaseEncodingDirection": "j-",
  "PhaseEncodingSteps": 101,
  "PhaseResolution": 1,
  "PixelBandwidth": 1435,
  "ProcedureStepDescription": "Research_Projects_64CH",
  "ProtocolName": "mbep2d_bold_MB3_loca1",
  "PulseSequenceDetails": "%CustomerSeq%_cmrr_mbep2d_bold",
  "ReceiveCoilActiveElements": "HC1-6",
  "ReceiveCoilName": "HeadNeck_64",
  "ReconMatrixPE": 116,
  "RefLinesPE": 44,
  "RepetitionTime": 2,
  "SAR": 0.0490005,
  "ScanOptions": "PFP_FS",
  "ScanningSequence": "EP",
  "SequenceName": "epfid2d1_116",
  "SequenceVariant": "SK_SS",
  "SeriesDescription": "mbep2d_bold_MB3_loca1",
  "SeriesNumber": 9,
  "ShimSetting": [-3450, -2110, -1939, 407, -6, -316, 73, 25],
  "SliceThickness": 1.9,
  "SliceTiming": [0, 0.9075, 1.815, 0.7425, 1.65, 0.5775, 1.485, 0.4125, 1.32, 0.2475, 1.155, 0.0825, 0.99, 1.8975, 0.825, 1.7325, 0.66, 1.5675, 0.495, 1.4025, 0.33, 1.2375, 0.165, 1.0725, 0, 0.9075, 1.815, 0.7425, 1.65, 0.5775, 1.485, 0.4125, 1.32, 0.2475, 1.155, 0.0825, 0.99, 1.8975, 0.825, 1.7325, 0.66, 1.5675, 0.495, 1.4025, 0.33, 1.2375, 0.165, 1.0725, 0, 0.9075, 1.815, 0.7425, 1.65, 0.5775, 1.485, 0.4125, 1.32, 0.2475, 1.155, 0.0825, 0.99, 1.8975, 0.825, 1.7325, 0.66, 1.5675, 0.495, 1.4025, 0.33, 1.2375, 0.165, 1.0725],
  "SoftwareVersions": "syngo_MR_D13D",
  "SpacingBetweenSlices": 1.9,
  "StationName": "AWP66014",
  "TaskName": "localizer",
  "TotalReadoutTime": 0.0534753,
  "TxRefAmp": 212.129,
  "WipMemBlock": "e3ae33fd-5ffd-4942-9190-ca21589b8c60||Sequence: vd13d/master r/0735857; Nov 19 2014 09:21:40 by eja",
  "dcmmeta_affine": [
    [-1.8963336944580078, 0.023169243708252907, -0.017060618847608566, 110.73421478271484],
    [0.02385856769979, 1.8947595357894897, -0.07904454320669174, -95.42803192138672],
    [-0.016049668192863464, 0.07910624891519547, 1.8982783555984497, -69.30460357666016],
    [0.0, 0.0, 0.0, 1.0]
],
  "dcmmeta_reorient_transform": [
    [0.0, -1.0, 0.0, 115.0],
    [1.0, 0.0, 0.0, 0.0],
    [0.0, 0.0, 1.0, 0.0],
    [0.0, 0.0, 0.0, 1.0]
],
  "dcmmeta_shape": [116, 116, 72, 164],
  "dcmmeta_slice_dim": 2,
  "dcmmeta_version": 0.6,
  "global": {
    "const": {
      "AcquisitionMatrix": [116, 0, 0, 116],
      "AngioFlag": "N",
      "BitsAllocated": 16,
      "BitsStored": 16,
      "BodyPartExamined": "HEAD",
      "Columns": 1044,
      "EchoNumbers": 1,
      "EchoTime": 30.0,
      "EchoTrainLength": 50,
      "FlipAngle": 81.0,
      "HighBit": 15,
      "ImageOrientationPatient": [0.99988505815025, -0.0125799717746, -0.0084625526891, 0.01221651058452, 0.99905504619091, -0.0417105687999],
      "ImagePositionPatient": [-1004.0480565257, -990.5673827881, -16.055034789147],
      "ImageType": [
        "ORIGINAL",
        "PRIMARY",
        "M",
        "MB",
        "ND",
        "MOSAIC"
],
      "ImagedNucleus": "1H",
      "ImagingFrequency": 123.260578,
      "InPlanePhaseEncodingDirection": "COL",
      "LargestImagePixelValue": 65535,
      "MRAcquisitionType": "2D",
      "MagneticFieldStrength": 3.0,
      "Manufacturer": "SIEMENS",
      "ManufacturerModelName": "Prisma",
      "Modality": "MR",
      "NumberOfAverages": 1.0,
      "NumberOfPhaseEncodingSteps": 101,
      "PercentPhaseFieldOfView": 100.0,
      "PercentSampling": 100.0,
      "PerformedProcedureStepStartTime": "114738.410000",
      "PhotometricInterpretation": "MONOCHROME2",
      "PixelBandwidth": 1435.0,
      "PixelRepresentation": 0,
      "PixelSpacing": [1.8965517282486, 1.8965517282486],
      "ProtocolName": "mbep2d_bold_MB3_loca1",
      "RepetitionTime": 2000.0,
      "Rows": 1044,
      "SAR": 0.04900048114709,
      "SamplesPerPixel": 1,
      "ScanOptions": [
        "PFP",
        "FS"
],
      "ScanningSequence": "EP",
      "SequenceName": "epfid2d1_116",
      "SequenceVariant": [
        "SK",
        "SS"
],
      "SeriesDescription": "mbep2d_bold_MB3_loca1",
      "SeriesNumber": 9,
      "SeriesTime": "123055.936000",
      "SliceLocation": -66.2660818265,
      "SliceThickness": 1.8999999761581,
      "SmallestImagePixelValue": 0,
      "SoftwareVersions": "syngo MR D13D",
      "SpacingBetweenSlices": 1.8999999537053,
      "SpecificCharacterSet": "ISO_IR 100",
      "StudyID": "1",
      "StudyTime": "114738.357000",
      "TimeOfLastCalibration": ["123723.000000", "123723.000000"],
      "TransmitCoilName": "Body",
      "VariableFlipAngleFlag": "N",
      "WindowCenterWidthExplanation": "Algo1",
      "dBdt": 0.0},
    "slices": {}
  },
  "time": {
    "samples": {
      "AcquisitionNumber": [1, 2, 3, 4, 5, 6, 7, 8, 9, 10, 11, 12, 13, 14, 15, 16, 17, 18, 19, 20, 21, 22, 23, 24, 25, 26, 27, 28, 29, 30, 31, 32, 33, 34, 35, 36, 37, 38, 39, 40, 41, 42, 43, 44, 45, 46, 47, 48, 49, 50, 51, 52, 53, 54, 55, 56, 57, 58, 59, 60, 61, 62, 63, 64, 65, 66, 67, 68, 69, 70, 71, 72, 73, 74, 75, 76, 77, 78, 79, 80, 81, 82, 83, 84, 85, 86, 87, 88, 89, 90, 91, 92, 93, 94, 95, 96, 97, 98, 99, 100, 101, 102, 103, 104, 105, 106, 107, 108, 109, 110, 111, 112, 113, 114, 115, 116, 117, 118, 119, 120, 121, 122, 123, 124, 125, 126, 127, 128, 129, 130, 131, 132, 133, 134, 135, 136, 137, 138, 139, 140, 141, 142, 143, 144, 145, 146, 147, 148, 149, 150, 151, 152, 153, 154, 155, 156, 157, 158, 159, 160, 161, 162, 163, 164],
      "AcquisitionTime": ["123044.707500", "123046.707500", "123048.707500", "123050.707500", "123052.707500", "123054.707500", "123056.707500", "123058.707500", "123100.707500", "123102.707500", "123104.707500", "123106.707500", "123108.707500", "123110.707500", "123112.707500", "123114.707500", "123116.707500", "123118.707500", "123120.707500", "123122.707500", "123124.707500", "123126.707500", "123128.707500", "123130.707500", "123132.707500", "123134.707500", "123136.707500", "123138.707500", "123140.707500", "123142.707500", "123144.707500", "123146.707500", "123148.707500", "123150.707500", "123152.707500", "123154.707500", "123156.707500", "123158.707500", "123200.707500", "123202.707500", "123204.707500", "123206.707500", "123208.707500", "123210.707500", "123212.707500", "123214.707500", "123216.707500", "123218.707500", "123220.707500", "123222.707500", "123224.707500", "123226.707500", "123228.707500", "123230.707500", "123232.707500", "123234.707500", "123236.707500", "123238.707500", "123240.707500", "123242.707500", "123244.707500", "123246.707500", "123248.707500", "123250.707500", "123252.707500", "123254.707500", "123256.707500", "123258.707500", "123300.707500", "123302.707500", "123304.707500", "123306.707500", "123308.707500", "123310.707500", "123312.707500", "123314.707500", "123316.707500", "123318.707500", "123320.707500", "123322.707500", "123324.707500", "123326.707500", "123328.707500", "123330.707500", "123332.707500", "123334.707500", "123336.707500", "123338.707500", "123340.707500", "123342.707500", "123344.707500", "123346.707500", "123348.707500", "123350.707500", "123352.707500", "123354.707500", "123356.707500", "123358.707500", "123400.707500", "123402.707500", "123404.707500", "123406.707500", "123408.707500", "123410.707500", "123412.707500", "123414.710000", "123416.710000", "123418.710000", "123420.710000", "123422.710000", "123424.710000", "123426.710000", "123428.710000", "123430.710000", "123432.710000", "123434.710000", "123436.710000", "123438.710000", "123440.710000", "123442.710000", "123444.710000", "123446.710000", "123448.710000", "123450.710000", "123452.710000", "123454.710000", "123456.710000", "123458.710000", "123500.710000", "123502.710000", "123504.710000", "123506.710000", "123508.710000", "123510.710000", "123512.710000", "123514.710000", "123516.710000", "123518.710000", "123520.710000", "123522.710000", "123524.710000", "123526.710000", "123528.710000", "123530.710000", "123532.710000", "123534.710000", "123536.710000", "123538.710000", "123540.710000", "123542.710000", "123544.710000", "123546.710000", "123548.710000", "123550.710000", "123552.710000", "123554.710000", "123556.710000", "123558.710000", "123600.710000", "123602.710000", "123604.710000", "123606.710000", "123608.710000", "123610.710000"],
      "ContentTime": ["123055.941000", "123056.934000", "123056.938000", "123057.933000", "123058.934000", "123058.938000", "123059.935000", "123101.435000", "123103.435000", "123105.435000", "123107.435000", "123109.435000", "123111.435000", "123113.435000", "123115.434000", "123117.436000", "123119.435000", "123121.435000", "123123.436000", "123125.435000", "123127.435000", "123129.435000", "123131.435000", "123133.434000", "123135.435000", "123137.435000", "123139.435000", "123141.435000", "123143.435000", "123145.435000", "123147.434000", "123149.434000", "123151.435000", "123153.435000", "123155.438000", "123157.435000", "123159.435000", "123201.435000", "123203.435000", "123205.438000", "123207.434000", "123209.436000", "123211.435000", "123213.435000", "123215.435000", "123217.435000", "123219.435000", "123221.435000", "123223.435000", "123225.434000", "123227.434000", "123229.435000", "123231.435000", "123233.436000", "123235.435000", "123237.435000", "123239.436000", "123241.436000", "123243.435000", "123245.435000", "123247.434000", "123249.435000", "123251.436000", "123253.435000", "123255.435000", "123257.435000", "123259.434000", "123301.435000", "123303.435000", "123305.435000", "123307.435000", "123309.436000", "123311.435000", "123313.435000", "123315.434000", "123317.435000", "123319.435000", "123321.435000", "123323.435000", "123325.436000", "123327.435000", "123329.435000", "123331.435000", "123333.435000", "123335.434000", "123337.434000", "123339.435000", "123341.433000", "123343.435000", "123345.435000", "123347.436000", "123349.435000", "123351.435000", "123353.435000", "123355.435000", "123357.435000", "123359.435000", "123401.435000", "123403.435000", "123405.436000", "123407.435000", "123409.434000", "123411.436000", "123413.435000", "123415.436000", "123417.433000", "123419.435000", "123421.435000", "123423.435000", "123425.435000", "123427.434000", "123429.435000", "123431.435000", "123433.435000", "123435.435000", "123437.435000", "123439.435000", "123441.435000", "123443.435000", "123445.434000", "123447.435000", "123449.435000", "123451.435000", "123453.436000", "123455.435000", "123457.435000", "123459.435000", "123501.435000", "123503.435000", "123505.435000", "123507.435000", "123509.434000", "123511.434000", "123513.434000", "123515.435000", "123517.435000", "123519.434000", "123521.435000", "123523.435000", "123525.435000", "123527.435000", "123529.435000", "123531.435000", "123533.434000", "123535.435000", "123537.434000", "123539.435000", "123541.435000", "123543.435000", "123545.435000", "123547.435000", "123549.435000", "123551.436000", "123553.436000", "123555.434000", "123557.435000", "123559.435000", "123601.435000", "123603.435000", "123605.435000", "123607.435000", "123609.435000", "123611.435000", "123613.025000"],
      "InstanceCreationTime": ["123055.941000", "123056.934000", "123056.938000", "123057.933000", "123058.934000", "123058.938000", "123059.935000", "123101.435000", "123103.435000", "123105.435000", "123107.435000", "123109.435000", "123111.435000", "123113.435000", "123115.434000", "123117.436000", "123119.435000", "123121.435000", "123123.436000", "123125.435000", "123127.435000", "123129.435000", "123131.435000", "123133.434000", "123135.435000", "123137.435000", "123139.435000", "123141.435000", "123143.435000", "123145.435000", "123147.434000", "123149.434000", "123151.435000", "123153.435000", "123155.438000", "123157.435000", "123159.435000", "123201.435000", "123203.435000", "123205.438000", "123207.434000", "123209.436000", "123211.435000", "123213.435000", "123215.435000", "123217.435000", "123219.435000", "123221.435000", "123223.435000", "123225.434000", "123227.434000", "123229.435000", "123231.435000", "123233.436000", "123235.435000", "123237.435000", "123239.436000", "123241.436000", "123243.435000", "123245.435000", "123247.434000", "123249.435000", "123251.436000", "123253.435000", "123255.435000", "123257.435000", "123259.434000", "123301.435000", "123303.435000", "123305.435000", "123307.435000", "123309.436000", "123311.435000", "123313.435000", "123315.434000", "123317.435000", "123319.435000", "123321.435000", "123323.435000", "123325.436000", "123327.435000", "123329.435000", "123331.435000", "123333.435000", "123335.434000", "123337.434000", "123339.435000", "123341.433000", "123343.435000", "123345.435000", "123347.436000", "123349.435000", "123351.435000", "123353.435000", "123355.435000", "123357.435000", "123359.435000", "123401.435000", "123403.435000", "123405.436000", "123407.435000", "123409.434000", "123411.436000", "123413.435000", "123415.436000", "123417.433000", "123419.435000", "123421.435000", "123423.435000", "123425.435000", "123427.434000", "123429.435000", "123431.435000", "123433.435000", "123435.435000", "123437.435000", "123439.435000", "123441.435000", "123443.435000", "123445.434000", "123447.435000", "123449.435000", "123451.435000", "123453.436000", "123455.435000", "123457.435000", "123459.435000", "123501.435000", "123503.435000", "123505.435000", "123507.435000", "123509.434000", "123511.434000", "123513.434000", "123515.435000", "123517.435000", "123519.434000", "123521.435000", "123523.435000", "123525.435000", "123527.435000", "123529.435000", "123531.435000", "123533.434000", "123535.435000", "123537.434000", "123539.435000", "123541.435000", "123543.435000", "123545.435000", "123547.435000", "123549.435000", "123551.436000", "123553.436000", "123555.434000", "123557.435000", "123559.435000", "123601.435000", "123603.435000", "123605.435000", "123607.435000", "123609.435000", "123611.435000", "123613.025000"],
      "InstanceNumber": [1, 2, 3, 4, 5, 6, 7, 8, 9, 10, 11, 12, 13, 14, 15, 16, 17, 18, 19, 20, 21, 22, 23, 24, 25, 26, 27, 28, 29, 30, 31, 32, 33, 34, 35, 36, 37, 38, 39, 40, 41, 42, 43, 44, 45, 46, 47, 48, 49, 50, 51, 52, 53, 54, 55, 56, 57, 58, 59, 60, 61, 62, 63, 64, 65, 66, 67, 68, 69, 70, 71, 72, 73, 74, 75, 76, 77, 78, 79, 80, 81, 82, 83, 84, 85, 86, 87, 88, 89, 90, 91, 92, 93, 94, 95, 96, 97, 98, 99, 100, 101, 102, 103, 104, 105, 106, 107, 108, 109, 110, 111, 112, 113, 114, 115, 116, 117, 118, 119, 120, 121, 122, 123, 124, 125, 126, 127, 128, 129, 130, 131, 132, 133, 134, 135, 136, 137, 138, 139, 140, 141, 142, 143, 144, 145, 146, 147, 148, 149, 150, 151, 152, 153, 154, 155, 156, 157, 158, 159, 160, 161, 162, 163, 164],
      "WindowCenter": [16014.0, 16002.0, 15997.0, 15979.0, 15998.0, 15985.0, 15995.0, 16001.0, 16017.0, 15998.0, 16021.0, 16021.0, 16020.0, 16002.0, 15986.0, 16003.0, 16010.0, 16010.0, 15993.0, 15989.0, 15991.0, 15985.0, 15991.0, 16006.0, 16011.0, 16014.0, 16021.0, 16002.0, 16014.0, 16007.0, 16015.0, 16022.0, 16015.0, 16028.0, 16013.0, 16001.0, 15988.0, 15974.0, 15981.0, 15985.0, 15998.0, 16002.0, 16018.0, 16002.0, 15995.0, 16022.0, 16029.0, 16014.0, 16006.0, 15994.0, 15990.0, 15994.0, 15997.0, 16011.0, 15995.0, 15993.0, 15985.0, 15965.0, 15990.0, 15991.0, 15997.0, 16008.0, 16008.0, 16015.0, 16022.0, 16022.0, 16030.0, 16019.0, 16011.0, 16000.0, 16000.0, 16009.0, 16012.0, 15991.0, 15991.0, 16004.0, 16010.0, 15999.0, 16010.0, 15995.0, 15997.0, 16013.0, 16021.0, 15992.0, 15992.0, 16012.0, 16019.0, 16025.0, 16024.0, 16018.0, 16018.0, 16028.0, 16009.0, 15977.0, 15979.0, 16010.0, 15997.0, 16000.0, 16012.0, 16014.0, 16007.0, 16010.0, 16003.0, 15996.0, 15985.0, 15991.0, 16001.0, 16003.0, 16004.0, 16014.0, 16013.0, 16018.0, 16031.0, 16024.0, 16043.0, 16034.0, 16014.0, 16024.0, 16031.0, 16027.0, 16023.0, 16014.0, 16038.0, 16040.0, 16033.0, 16025.0, 16035.0, 16033.0, 16032.0, 16034.0, 16034.0, 16033.0, 16050.0, 16070.0, 16072.0, 16056.0, 16050.0, 16048.0, 16060.0, 16069.0, 16061.0, 16060.0, 16083.0, 16079.0, 16068.0, 16037.0, 16036.0, 16029.0, 16042.0, 16054.0, 16048.0, 16046.0, 16038.0, 16039.0, 16033.0, 16042.0, 16040.0, 16052.0, 16064.0, 16073.0, 16085.0, 16061.0, 16042.0, 16035.0],
      "WindowWidth": [44042.0, 43977.0, 43982.0, 43993.0, 43968.0, 43971.0, 44023.0, 44001.0, 44004.0, 43986.0, 44068.0, 44038.0, 44021.0, 43946.0, 43958.0, 43977.0, 43996.0, 43955.0, 43894.0, 43848.0, 43851.0, 43891.0, 43949.0, 44007.0, 44039.0, 44032.0, 43982.0, 43948.0, 43961.0, 43997.0, 43992.0, 43969.0, 44019.0, 44015.0, 43958.0, 43873.0, 43807.0, 43809.0, 43843.0, 43903.0, 43970.0, 44016.0, 43988.0, 43988.0, 43981.0, 43997.0, 44002.0, 43932.0, 43841.0, 43799.0, 43906.0, 43939.0, 43902.0, 43874.0, 43898.0, 43856.0, 43804.0, 43843.0, 43878.0, 43867.0, 43929.0, 43983.0, 44009.0, 43961.0, 43987.0, 44052.0, 44048.0, 43981.0, 43890.0, 43835.0, 43904.0, 43940.0, 43887.0, 43855.0, 43923.0, 43965.0, 43982.0, 43916.0, 43926.0, 43901.0, 43943.0, 43959.0, 43953.0, 43921.0, 43908.0, 43929.0, 43964.0, 43944.0, 43930.0, 43963.0, 44031.0, 43956.0, 43841.0, 43769.0, 43798.0, 43830.0, 43915.0, 43877.0, 43885.0, 43984.0, 43947.0, 43898.0, 43809.0, 43732.0, 43735.0, 43753.0, 43792.0, 43809.0, 43837.0, 43848.0, 43917.0, 43976.0, 44044.0, 44039.0, 44002.0, 43981.0, 43977.0, 44012.0, 44019.0, 43983.0, 43924.0, 43987.0, 44025.0, 44041.0, 43993.0, 43998.0, 43992.0, 43932.0, 43874.0, 43875.0, 43928.0, 43959.0, 44043.0, 44035.0, 43969.0, 43911.0, 43934.0, 43947.0, 44000.0, 44022.0, 43984.0, 43987.0, 44036.0, 44032.0, 43963.0, 43835.0, 43791.0, 43845.0, 43939.0, 43968.0, 44001.0, 43917.0, 43867.0, 43865.0, 43891.0, 43899.0, 43925.0, 43964.0, 44004.0, 44069.0, 44081.0, 43975.0, 43887.0, 43850.0]
    },
    "slices": {}
  }
}