{
  "AcquisitionMatrixPE": 116,
  "AcquisitionNumber": 1,
  "AcquisitionTime": "12:20:3.707500",
  "BandwidthPerPixelPhaseEncode": 18.539,
  "BaseResolution": 116,
  "BodyPartExamined": "HEAD",
  "ConsistencyInfo": "N4_VD13D_LATEST_20130810",
  "ConversionSoftware": "dcm2niix",
  "ConversionSoftwareVersion": "v1.0.20190410  (JP2:OpenJPEG) (JP-LS:CharLS) GCC5.5.0",
  "DerivedVendorReportedEchoSpacing": 0.000930006,
  "DeviceSerialNumber": "66014",
  "DwellTime": 3e-06,
  "EchoTime": 0.03,
  "EchoTrainLength": 50,
  "EffectiveEchoSpacing": 0.000465003,
  "FlipAngle": 81,
  "ImageComments": "Unaliased_MB3_PE4",
  "ImageOrientationPatientDICOM": [0.999885, -0.01258, -0.00846255, 0.0122165, 0.999055, -0.0417106],
  "ImageType": [
    "ORIGINAL",
    "PRIMARY",
    "M",
    "MB",
    "ND",
    "MOSAIC"
],
  "ImagingFrequency": 123.261,
  "InPlanePhaseEncodingDirectionDICOM": "COL",
  "InstitutionAddress": "Yiheyuan_Road_5_Beijing_Haidian_CN_100871",
  "InstitutionName": "Peking_Univeristy",
  "InstitutionalDepartmentName": "Department",
  "MRAcquisitionType": "2D",
  "MagneticFieldStrength": 3,
  "Manufacturer": "Siemens",
  "ManufacturersModelName": "Prisma",
  "Modality": "MR",
  "MultibandAccelerationFactor": 3,
  "ParallelReductionFactorInPlane": 2,
  "PartialFourier": 0.875,
  "PatientPosition": "HFS",
  "PercentPhaseFOV": 100,
  "PhaseEncodingDirection": "j-",
  "PhaseEncodingSteps": 101,
  "PhaseResolution": 1,
  "PixelBandwidth": 1435,
  "ProcedureStepDescription": "Research_Projects_64CH",
  "ProtocolName": "mbep2d_bold_MB3_test3",
  "PulseSequenceDetails": "%CustomerSeq%_cmrr_mbep2d_bold",
  "ReceiveCoilActiveElements": "HC1-6",
  "ReceiveCoilName": "HeadNeck_64",
  "ReconMatrixPE": 116,
  "RefLinesPE": 44,
  "RepetitionTime": 2,
  "SAR": 0.0499325,
  "ScanOptions": "PFP_FS",
  "ScanningSequence": "EP",
  "SequenceName": "epfid2d1_116",
  "SequenceVariant": "SK_SS",
  "SeriesDescription": "mbep2d_bold_MB3_test3",
  "SeriesNumber": 8,
  "ShimSetting": [-3450, -2110, -1939, 407, -6, -316, 73, 25],
  "SliceThickness": 1.9,
  "SliceTiming": [0, 0.9075, 1.815, 0.7425, 1.65, 0.5775, 1.485, 0.4125, 1.32, 0.2475, 1.155, 0.0825, 0.99, 1.8975, 0.825, 1.7325, 0.66, 1.5675, 0.495, 1.4025, 0.33, 1.2375, 0.165, 1.0725, 0, 0.9075, 1.815, 0.7425, 1.65, 0.5775, 1.485, 0.4125, 1.32, 0.2475, 1.155, 0.0825, 0.99, 1.8975, 0.825, 1.7325, 0.66, 1.5675, 0.495, 1.4025, 0.33, 1.2375, 0.165, 1.0725, 0, 0.9075, 1.815, 0.7425, 1.65, 0.5775, 1.485, 0.4125, 1.32, 0.2475, 1.155, 0.0825, 0.99, 1.8975, 0.825, 1.7325, 0.66, 1.5675, 0.495, 1.4025, 0.33, 1.2375, 0.165, 1.0725],
  "SoftwareVersions": "syngo_MR_D13D",
  "SpacingBetweenSlices": 1.9,
  "StationName": "AWP66014",
  "TaskName": "retrieval",
  "TotalReadoutTime": 0.0534753,
  "TxRefAmp": 212.129,
  "WipMemBlock": "b6b6168f-9628-494c-8844-615251a44cea||Sequence: vd13d/master r/0735857; Nov 19 2014 09:21:40 by eja",
  "dcmmeta_affine": [
    [-1.8963336944580078, 0.023169243708252907, -0.017060618847608566, 110.73421478271484],
    [0.02385856769979, 1.8947595357894897, -0.07904454320669174, -95.42803192138672],
    [-0.016049668192863464, 0.07910624891519547, 1.8982783555984497, -69.30460357666016],
    [0.0, 0.0, 0.0, 1.0]
],
  "dcmmeta_reorient_transform": [
    [0.0, -1.0, 0.0, 115.0],
    [1.0, 0.0, 0.0, 0.0],
    [0.0, 0.0, 1.0, 0.0],
    [0.0, 0.0, 0.0, 1.0]
],
  "dcmmeta_shape": [116, 116, 72, 289],
  "dcmmeta_slice_dim": 2,
  "dcmmeta_version": 0.6,
  "global": {
    "const": {
      "AcquisitionMatrix": [116, 0, 0, 116],
      "AngioFlag": "N",
      "BitsAllocated": 16,
      "BitsStored": 16,
      "BodyPartExamined": "HEAD",
      "Columns": 1044,
      "EchoNumbers": 1,
      "EchoTime": 30.0,
      "EchoTrainLength": 50,
      "FlipAngle": 81.0,
      "HighBit": 15,
      "ImageOrientationPatient": [0.99988505815025, -0.0125799717746, -0.0084625526891, 0.01221651058452, 0.99905504619091, -0.0417105687999],
      "ImagePositionPatient": [-1004.0480565257, -990.5673827881, -16.055034789147],
      "ImageType": [
        "ORIGINAL",
        "PRIMARY",
        "M",
        "MB",
        "ND",
        "MOSAIC"
],
      "ImagedNucleus": "1H",
      "ImagingFrequency": 123.260577,
      "InPlanePhaseEncodingDirection": "COL",
      "LargestImagePixelValue": 65535,
      "MRAcquisitionType": "2D",
      "MagneticFieldStrength": 3.0,
      "Manufacturer": "SIEMENS",
      "ManufacturerModelName": "Prisma",
      "Modality": "MR",
      "NumberOfAverages": 1.0,
      "NumberOfPhaseEncodingSteps": 101,
      "PercentPhaseFieldOfView": 100.0,
      "PercentSampling": 100.0,
      "PerformedProcedureStepStartTime": "114738.410000",
      "PhotometricInterpretation": "MONOCHROME2",
      "PixelBandwidth": 1435.0,
      "PixelRepresentation": 0,
      "PixelSpacing": [1.8965517282486, 1.8965517282486],
      "ProtocolName": "mbep2d_bold_MB3_test3",
      "RepetitionTime": 2000.0,
      "Rows": 1044,
      "SAR": 0.04993250280468,
      "SamplesPerPixel": 1,
      "ScanOptions": [
        "PFP",
        "FS"
],
      "ScanningSequence": "EP",
      "SequenceName": "epfid2d1_116",
      "SequenceVariant": [
        "SK",
        "SS"
],
      "SeriesDescription": "mbep2d_bold_MB3_test3",
      "SeriesNumber": 8,
      "SeriesTime": "122015.299000",
      "SliceLocation": -66.2660818265,
      "SliceThickness": 1.8999999761581,
      "SmallestImagePixelValue": 0,
      "SoftwareVersions": "syngo MR D13D",
      "SpacingBetweenSlices": 1.8999999537053,
      "SpecificCharacterSet": "ISO_IR 100",
      "StudyID": "1",
      "StudyTime": "114738.357000",
      "TimeOfLastCalibration": ["123723.000000", "123723.000000"],
      "TransmitCoilName": "Body",
      "VariableFlipAngleFlag": "N",
      "WindowCenterWidthExplanation": "Algo1",
      "dBdt": 0.0},
    "slices": {}
  },
  "time": {
    "samples": {
      "AcquisitionNumber": [1, 2, 3, 4, 5, 6, 7, 8, 9, 10, 11, 12, 13, 14, 15, 16, 17, 18, 19, 20, 21, 22, 23, 24, 25, 26, 27, 28, 29, 30, 31, 32, 33, 34, 35, 36, 37, 38, 39, 40, 41, 42, 43, 44, 45, 46, 47, 48, 49, 50, 51, 52, 53, 54, 55, 56, 57, 58, 59, 60, 61, 62, 63, 64, 65, 66, 67, 68, 69, 70, 71, 72, 73, 74, 75, 76, 77, 78, 79, 80, 81, 82, 83, 84, 85, 86, 87, 88, 89, 90, 91, 92, 93, 94, 95, 96, 97, 98, 99, 100, 101, 102, 103, 104, 105, 106, 107, 108, 109, 110, 111, 112, 113, 114, 115, 116, 117, 118, 119, 120, 121, 122, 123, 124, 125, 126, 127, 128, 129, 130, 131, 132, 133, 134, 135, 136, 137, 138, 139, 140, 141, 142, 143, 144, 145, 146, 147, 148, 149, 150, 151, 152, 153, 154, 155, 156, 157, 158, 159, 160, 161, 162, 163, 164, 165, 166, 167, 168, 169, 170, 171, 172, 173, 174, 175, 176, 177, 178, 179, 180, 181, 182, 183, 184, 185, 186, 187, 188, 189, 190, 191, 192, 193, 194, 195, 196, 197, 198, 199, 200, 201, 202, 203, 204, 205, 206, 207, 208, 209, 210, 211, 212, 213, 214, 215, 216, 217, 218, 219, 220, 221, 222, 223, 224, 225, 226, 227, 228, 229, 230, 231, 232, 233, 234, 235, 236, 237, 238, 239, 240, 241, 242, 243, 244, 245, 246, 247, 248, 249, 250, 251, 252, 253, 254, 255, 256, 257, 258, 259, 260, 261, 262, 263, 264, 265, 266, 267, 268, 269, 270, 271, 272, 273, 274, 275, 276, 277, 278, 279, 280, 281, 282, 283, 284, 285, 286, 287, 288, 289],
      "AcquisitionTime": ["122003.707500", "122005.707500", "122007.707500", "122009.707500", "122011.707500", "122013.707500", "122015.707500", "122017.707500", "122019.707500", "122021.707500", "122023.707500", "122025.707500", "122027.707500", "122029.707500", "122031.707500", "122033.707500", "122035.707500", "122037.707500", "122039.707500", "122041.707500", "122043.707500", "122045.707500", "122047.707500", "122049.707500", "122051.707500", "122053.707500", "122055.707500", "122057.707500", "122059.707500", "122101.707500", "122103.707500", "122105.707500", "122107.707500", "122109.707500", "122111.707500", "122113.707500", "122115.707500", "122117.707500", "122119.707500", "122121.707500", "122123.707500", "122125.707500", "122127.707500", "122129.707500", "122131.707500", "122133.707500", "122135.707500", "122137.707500", "122139.707500", "122141.707500", "122143.707500", "122145.707500", "122147.707500", "122149.707500", "122151.707500", "122153.707500", "122155.707500", "122157.707500", "122159.707500", "122201.707500", "122203.707500", "122205.707500", "122207.707500", "122209.707500", "122211.707500", "122213.707500", "122215.707500", "122217.707500", "122219.707500", "122221.707500", "122223.707500", "122225.707500", "122227.707500", "122229.707500", "122231.707500", "122233.707500", "122235.707500", "122237.707500", "122239.707500", "122241.707500", "122243.707500", "122245.707500", "122247.707500", "122249.707500", "122251.707500", "122253.707500", "122255.707500", "122257.707500", "122259.707500", "122301.707500", "122303.707500", "122305.707500", "122307.707500", "122309.707500", "122311.707500", "122313.707500", "122315.707500", "122317.707500", "122319.707500", "122321.707500", "122323.707500", "122325.707500", "122327.707500", "122329.707500", "122331.707500", "122333.707500", "122335.707500", "122337.707500", "122339.707500", "122341.707500", "122343.707500", "122345.710000", "122347.710000", "122349.710000", "122351.710000", "122353.710000", "122355.710000", "122357.710000", "122359.710000", "122401.710000", "122403.710000", "122405.710000", "122407.710000", "122409.710000", "122411.710000", "122413.710000", "122415.710000", "122417.710000", "122419.710000", "122421.710000", "122423.710000", "122425.710000", "122427.710000", "122429.710000", "122431.710000", "122433.710000", "122435.710000", "122437.710000", "122439.710000", "122441.710000", "122443.710000", "122445.710000", "122447.710000", "122449.710000", "122451.710000", "122453.710000", "122455.710000", "122457.710000", "122459.710000", "122501.710000", "122503.710000", "122505.710000", "122507.710000", "122509.710000", "122511.710000", "122513.710000", "122515.710000", "122517.710000", "122519.710000", "122521.710000", "122523.710000", "122525.710000", "122527.710000", "122529.710000", "122531.710000", "122533.710000", "122535.710000", "122537.710000", "122539.710000", "122541.710000", "122543.710000", "122545.710000", "122547.710000", "122549.710000", "122551.710000", "122553.710000", "122555.710000", "122557.710000", "122559.710000", "122601.710000", "122603.710000", "122605.710000", "122607.710000", "122609.710000", "122611.710000", "122613.710000", "122615.710000", "122617.710000", "122619.710000", "122621.710000", "122623.710000", "122625.710000", "122627.710000", "122629.710000", "122631.710000", "122633.710000", "122635.710000", "122637.710000", "122639.710000", "122641.710000", "122643.710000", "122645.710000", "122647.710000", "122649.710000", "122651.710000", "122653.710000", "122655.710000", "122657.710000", "122659.710000", "122701.710000", "122703.710000", "122705.710000", "122707.710000", "122709.710000", "122711.710000", "122713.710000", "122715.710000", "122717.710000", "122719.710000", "122721.710000", "122723.710000", "122725.710000", "122727.710000", "122729.710000", "122731.710000", "122733.710000", "122735.710000", "122737.710000", "122739.710000", "122741.710000", "122743.710000", "122745.710000", "122747.710000", "122749.710000", "122751.710000", "122753.710000", "122755.710000", "122757.710000", "122759.710000", "122801.710000", "122803.710000", "122805.710000", "122807.710000", "122809.710000", "122811.710000", "122813.710000", "122815.710000", "122817.710000", "122819.710000", "122821.710000", "122823.710000", "122825.710000", "122827.710000", "122829.710000", "122831.710000", "122833.710000", "122835.710000", "122837.710000", "122839.710000", "122841.710000", "122843.710000", "122845.710000", "122847.710000", "122849.710000", "122851.710000", "122853.710000", "122855.710000", "122857.710000", "122859.710000", "122901.710000", "122903.710000", "122905.710000", "122907.710000", "122909.710000", "122911.710000", "122913.710000", "122915.710000", "122917.710000", "122919.710000", "122921.710000", "122923.710000", "122925.710000", "122927.710000", "122929.710000", "122931.710000", "122933.710000", "122935.710000", "122937.710000", "122939.710000"],
      "ContentTime": ["122015.304000", "122016.298000", "122016.303000", "122017.298000", "122018.300000", "122018.305000", "122019.299000", "122020.800000", "122022.800000", "122024.799000", "122026.798000", "122028.800000", "122030.800000", "122032.800000", "122034.800000", "122036.799000", "122038.800000", "122040.800000", "122042.800000", "122044.800000", "122046.800000", "122048.800000", "122050.800000", "122052.800000", "122054.800000", "122056.800000", "122058.800000", "122100.799000", "122102.799000", "122104.800000", "122106.800000", "122108.800000", "122110.800000", "122112.800000", "122114.800000", "122116.799000", "122118.799000", "122120.799000", "122122.800000", "122124.800000", "122126.800000", "122128.800000", "122130.800000", "122132.800000", "122134.799000", "122136.799000", "122138.799000", "122140.800000", "122142.800000", "122144.799000", "122146.801000", "122148.800000", "122150.799000", "122152.800000", "122154.800000", "122156.801000", "122158.800000", "122200.801000", "122202.800000", "122204.799000", "122206.800000", "122208.800000", "122210.799000", "122212.797000", "122214.799000", "122216.798000", "122218.800000", "122220.799000", "122222.800000", "122224.800000", "122226.798000", "122228.798000", "122230.798000", "122232.799000", "122234.799000", "122236.799000", "122238.799000", "122240.799000", "122242.799000", "122244.799000", "122246.798000", "122248.798000", "122250.799000", "122252.799000", "122254.799000", "122256.799000", "122258.799000", "122300.799000", "122302.798000", "122304.798000", "122306.799000", "122308.800000", "122310.800000", "122312.799000", "122314.800000", "122316.800000", "122318.800000", "122320.799000", "122322.799000", "122324.800000", "122326.800000", "122328.800000", "122330.800000", "122332.800000", "122334.800000", "122336.799000", "122338.799000", "122340.799000", "122342.800000", "122344.800000", "122346.800000", "122348.800000", "122350.800000", "122352.800000", "122354.799000", "122356.798000", "122358.799000", "122400.800000", "122402.800000", "122404.800000", "122406.800000", "122408.800000", "122410.799000", "122412.799000", "122414.799000", "122416.800000", "122418.800000", "122420.801000", "122422.800000", "122424.801000", "122426.800000", "122428.800000", "122430.799000", "122432.799000", "122434.801000", "122436.801000", "122438.800000", "122440.800000", "122442.801000", "122444.800000", "122446.798000", "122448.797000", "122450.799000", "122452.800000", "122454.800000", "122456.801000", "122458.800000", "122500.800000", "122502.800000", "122504.799000", "122506.799000", "122508.798000", "122510.801000", "122512.800000", "122514.800000", "122516.800000", "122518.800000", "122520.800000", "122522.799000", "122524.799000", "122526.800000", "122528.800000", "122530.800000", "122532.800000", "122534.800000", "122536.800000", "122538.800000", "122540.799000", "122542.799000", "122544.800000", "122546.800000", "122548.800000", "122550.800000", "122552.800000", "122554.800000", "122556.799000", "122558.811000", "122600.799000", "122602.800000", "122604.800000", "122606.800000", "122608.800000", "122610.800000", "122612.800000", "122614.799000", "122616.799000", "122618.797000", "122620.801000", "122622.800000", "122624.800000", "122626.800000", "122628.801000", "122630.800000", "122632.799000", "122634.798000", "122636.799000", "122638.800000", "122640.799000", "122642.801000", "122644.800000", "122646.800000", "122648.800000", "122650.799000", "122652.799000", "122654.800000", "122656.799000", "122658.800000", "122700.800000", "122702.800000", "122704.800000", "122706.799000", "122708.798000", "122710.799000", "122712.800000", "122714.800000", "122716.800000", "122718.801000", "122720.800000", "122722.800000", "122724.798000", "122726.800000", "122728.800000", "122730.800000", "122732.801000", "122734.799000", "122736.800000", "122738.800000", "122740.800000", "122742.799000", "122744.799000", "122746.800000", "122748.800000", "122750.800000", "122752.800000", "122754.800000", "122756.800000", "122758.800000", "122800.799000", "122802.800000", "122804.800000", "122806.800000", "122808.800000", "122810.800000", "122812.800000", "122814.800000", "122816.799000", "122818.799000", "122820.799000", "122822.800000", "122824.800000", "122826.800000", "122828.800000", "122830.800000", "122832.800000", "122834.799000", "122836.799000", "122838.800000", "122840.800000", "122842.800000", "122844.800000", "122846.800000", "122848.800000", "122850.800000", "122852.799000", "122854.799000", "122856.800000", "122858.800000", "122900.800000", "122902.800000", "122904.800000", "122906.800000", "122908.798000", "122910.799000", "122912.799000", "122914.800000", "122916.800000", "122918.800000", "122920.800000", "122922.798000", "122924.800000", "122926.798000", "122928.799000", "122930.799000", "122932.800000", "122934.800000", "122936.800000", "122938.800000", "122940.800000", "122942.417000"],
      "InstanceCreationTime": ["122015.304000", "122016.298000", "122016.303000", "122017.298000", "122018.300000", "122018.305000", "122019.299000", "122020.800000", "122022.800000", "122024.799000", "122026.798000", "122028.800000", "122030.800000", "122032.800000", "122034.800000", "122036.799000", "122038.800000", "122040.800000", "122042.800000", "122044.800000", "122046.800000", "122048.800000", "122050.800000", "122052.800000", "122054.800000", "122056.800000", "122058.800000", "122100.799000", "122102.799000", "122104.800000", "122106.800000", "122108.800000", "122110.800000", "122112.800000", "122114.800000", "122116.799000", "122118.799000", "122120.799000", "122122.800000", "122124.800000", "122126.800000", "122128.800000", "122130.800000", "122132.800000", "122134.799000", "122136.799000", "122138.799000", "122140.800000", "122142.800000", "122144.799000", "122146.801000", "122148.800000", "122150.799000", "122152.800000", "122154.800000", "122156.801000", "122158.800000", "122200.801000", "122202.800000", "122204.799000", "122206.800000", "122208.800000", "122210.799000", "122212.797000", "122214.799000", "122216.798000", "122218.800000", "122220.799000", "122222.800000", "122224.800000", "122226.798000", "122228.798000", "122230.798000", "122232.799000", "122234.799000", "122236.799000", "122238.799000", "122240.799000", "122242.799000", "122244.799000", "122246.798000", "122248.798000", "122250.799000", "122252.799000", "122254.799000", "122256.799000", "122258.799000", "122300.799000", "122302.798000", "122304.798000", "122306.799000", "122308.800000", "122310.800000", "122312.799000", "122314.800000", "122316.800000", "122318.800000", "122320.799000", "122322.799000", "122324.800000", "122326.800000", "122328.800000", "122330.800000", "122332.800000", "122334.800000", "122336.799000", "122338.799000", "122340.799000", "122342.800000", "122344.800000", "122346.800000", "122348.800000", "122350.800000", "122352.800000", "122354.799000", "122356.798000", "122358.799000", "122400.800000", "122402.800000", "122404.800000", "122406.800000", "122408.800000", "122410.799000", "122412.799000", "122414.799000", "122416.800000", "122418.800000", "122420.801000", "122422.800000", "122424.801000", "122426.800000", "122428.800000", "122430.799000", "122432.799000", "122434.801000", "122436.801000", "122438.800000", "122440.800000", "122442.801000", "122444.800000", "122446.798000", "122448.797000", "122450.799000", "122452.800000", "122454.800000", "122456.801000", "122458.800000", "122500.800000", "122502.800000", "122504.799000", "122506.799000", "122508.798000", "122510.801000", "122512.800000", "122514.800000", "122516.800000", "122518.800000", "122520.800000", "122522.799000", "122524.799000", "122526.800000", "122528.800000", "122530.800000", "122532.800000", "122534.800000", "122536.800000", "122538.800000", "122540.799000", "122542.799000", "122544.800000", "122546.800000", "122548.800000", "122550.800000", "122552.800000", "122554.800000", "122556.799000", "122558.811000", "122600.799000", "122602.800000", "122604.800000", "122606.800000", "122608.800000", "122610.800000", "122612.800000", "122614.799000", "122616.799000", "122618.797000", "122620.801000", "122622.800000", "122624.800000", "122626.800000", "122628.801000", "122630.800000", "122632.799000", "122634.798000", "122636.799000", "122638.800000", "122640.799000", "122642.801000", "122644.800000", "122646.800000", "122648.800000", "122650.799000", "122652.799000", "122654.800000", "122656.799000", "122658.800000", "122700.800000", "122702.800000", "122704.800000", "122706.799000", "122708.798000", "122710.799000", "122712.800000", "122714.800000", "122716.800000", "122718.801000", "122720.800000", "122722.800000", "122724.798000", "122726.800000", "122728.800000", "122730.800000", "122732.801000", "122734.799000", "122736.800000", "122738.800000", "122740.800000", "122742.799000", "122744.799000", "122746.800000", "122748.800000", "122750.800000", "122752.800000", "122754.800000", "122756.800000", "122758.800000", "122800.799000", "122802.800000", "122804.800000", "122806.800000", "122808.800000", "122810.800000", "122812.800000", "122814.800000", "122816.799000", "122818.799000", "122820.799000", "122822.800000", "122824.800000", "122826.800000", "122828.800000", "122830.800000", "122832.800000", "122834.799000", "122836.799000", "122838.800000", "122840.800000", "122842.800000", "122844.800000", "122846.800000", "122848.800000", "122850.800000", "122852.799000", "122854.799000", "122856.800000", "122858.800000", "122900.800000", "122902.800000", "122904.800000", "122906.800000", "122908.798000", "122910.799000", "122912.799000", "122914.800000", "122916.800000", "122918.800000", "122920.800000", "122922.798000", "122924.800000", "122926.798000", "122928.799000", "122930.799000", "122932.800000", "122934.800000", "122936.800000", "122938.800000", "122940.800000", "122942.417000"],
      "InstanceNumber": [1, 2, 3, 4, 5, 6, 7, 8, 9, 10, 11, 12, 13, 14, 15, 16, 17, 18, 19, 20, 21, 22, 23, 24, 25, 26, 27, 28, 29, 30, 31, 32, 33, 34, 35, 36, 37, 38, 39, 40, 41, 42, 43, 44, 45, 46, 47, 48, 49, 50, 51, 52, 53, 54, 55, 56, 57, 58, 59, 60, 61, 62, 63, 64, 65, 66, 67, 68, 69, 70, 71, 72, 73, 74, 75, 76, 77, 78, 79, 80, 81, 82, 83, 84, 85, 86, 87, 88, 89, 90, 91, 92, 93, 94, 95, 96, 97, 98, 99, 100, 101, 102, 103, 104, 105, 106, 107, 108, 109, 110, 111, 112, 113, 114, 115, 116, 117, 118, 119, 120, 121, 122, 123, 124, 125, 126, 127, 128, 129, 130, 131, 132, 133, 134, 135, 136, 137, 138, 139, 140, 141, 142, 143, 144, 145, 146, 147, 148, 149, 150, 151, 152, 153, 154, 155, 156, 157, 158, 159, 160, 161, 162, 163, 164, 165, 166, 167, 168, 169, 170, 171, 172, 173, 174, 175, 176, 177, 178, 179, 180, 181, 182, 183, 184, 185, 186, 187, 188, 189, 190, 191, 192, 193, 194, 195, 196, 197, 198, 199, 200, 201, 202, 203, 204, 205, 206, 207, 208, 209, 210, 211, 212, 213, 214, 215, 216, 217, 218, 219, 220, 221, 222, 223, 224, 225, 226, 227, 228, 229, 230, 231, 232, 233, 234, 235, 236, 237, 238, 239, 240, 241, 242, 243, 244, 245, 246, 247, 248, 249, 250, 251, 252, 253, 254, 255, 256, 257, 258, 259, 260, 261, 262, 263, 264, 265, 266, 267, 268, 269, 270, 271, 272, 273, 274, 275, 276, 277, 278, 279, 280, 281, 282, 283, 284, 285, 286, 287, 288, 289],
      "WindowCenter": [15962.0, 15937.0, 15932.0, 15948.0, 15948.0, 15947.0, 15948.0, 15943.0, 15936.0, 15946.0, 15939.0, 15942.0, 15938.0, 15946.0, 15931.0, 15939.0, 15934.0, 15931.0, 15947.0, 15942.0, 15945.0, 15961.0, 15961.0, 15956.0, 15950.0, 15951.0, 15950.0, 15932.0, 15937.0, 15944.0, 15939.0, 15944.0, 15934.0, 15953.0, 15961.0, 15955.0, 15963.0, 15943.0, 15949.0, 15963.0, 15960.0, 15956.0, 15941.0, 15949.0, 15945.0, 15947.0, 15929.0, 15948.0, 15960.0, 15959.0, 15958.0, 15960.0, 15965.0, 15972.0, 15978.0, 15959.0, 15956.0, 15959.0, 15959.0, 15944.0, 15945.0, 15953.0, 15976.0, 15970.0, 15961.0, 15953.0, 15937.0, 15941.0, 15948.0, 15975.0, 15981.0, 15984.0, 15968.0, 15948.0, 15938.0, 15960.0, 15954.0, 15953.0, 15947.0, 15946.0, 15982.0, 15968.0, 15964.0, 15964.0, 15969.0, 15943.0, 15929.0, 15946.0, 15953.0, 15966.0, 15946.0, 15938.0, 15944.0, 15954.0, 15951.0, 15953.0, 15953.0, 15972.0, 15984.0, 15988.0, 15980.0, 15965.0, 15975.0, 15977.0, 16001.0, 15993.0, 15966.0, 15947.0, 15971.0, 15982.0, 16009.0, 15987.0, 15969.0, 15961.0, 15955.0, 15957.0, 15970.0, 15970.0, 15977.0, 15971.0, 15973.0, 15976.0, 15993.0, 16003.0, 15986.0, 15980.0, 15954.0, 15930.0, 15929.0, 15935.0, 15951.0, 15974.0, 15991.0, 15981.0, 15968.0, 15962.0, 15974.0, 15981.0, 15979.0, 15994.0, 15975.0, 15970.0, 15973.0, 15978.0, 15962.0, 15963.0, 15981.0, 15981.0, 15982.0, 15971.0, 15963.0, 15956.0, 15967.0, 15988.0, 15976.0, 15974.0, 15974.0, 15988.0, 15993.0, 15993.0, 15985.0, 15980.0, 15988.0, 15986.0, 15969.0, 15965.0, 15963.0, 15970.0, 15985.0, 15996.0, 15999.0, 15992.0, 15996.0, 15991.0, 15999.0, 15983.0, 15976.0, 15972.0, 15991.0, 16009.0, 15991.0, 15985.0, 15984.0, 15983.0, 15979.0, 15967.0, 15951.0, 15934.0, 15953.0, 15968.0, 15981.0, 15983.0, 15986.0, 15976.0, 15992.0, 16002.0, 16022.0, 16007.0, 15988.0, 15982.0, 15982.0, 15984.0, 15977.0, 15979.0, 15988.0, 15997.0, 15993.0, 15985.0, 15992.0, 15998.0, 15973.0, 15976.0, 15987.0, 15989.0, 15984.0, 15980.0, 15974.0, 15979.0, 15988.0, 15989.0, 15981.0, 15987.0, 15992.0, 15981.0, 15991.0, 15987.0, 15989.0, 15982.0, 15979.0, 15988.0, 15977.0, 15976.0, 15984.0, 15985.0, 15993.0, 15973.0, 15974.0, 15981.0, 15979.0, 15969.0, 15975.0, 15972.0, 15984.0, 15994.0, 15994.0, 15981.0, 15984.0, 15988.0, 15991.0, 16017.0, 16007.0, 16000.0, 15966.0, 15945.0, 15949.0, 15951.0, 15942.0, 15972.0, 15960.0, 15967.0, 15977.0, 15983.0, 15978.0, 15978.0, 15994.0, 15984.0, 16010.0, 15995.0, 15980.0, 15977.0, 15994.0, 15988.0, 16006.0, 15991.0, 15975.0, 15988.0, 15994.0, 15985.0, 16007.0, 16000.0, 16008.0, 16002.0, 15981.0, 15965.0, 15981.0, 15982.0, 15982.0, 15980.0, 15974.0],
      "WindowWidth": [43977.0, 43955.0, 43947.0, 43948.0, 43960.0, 43936.0, 43910.0, 43918.0, 43923.0, 43945.0, 43955.0, 43931.0, 43956.0, 43932.0, 43944.0, 43907.0, 43889.0, 43875.0, 43893.0, 43959.0, 44014.0, 43991.0, 43964.0, 43929.0, 43926.0, 43895.0, 43882.0, 43876.0, 43909.0, 43873.0, 43841.0, 43805.0, 43867.0, 43927.0, 43907.0, 43900.0, 43837.0, 43860.0, 43880.0, 43939.0, 43893.0, 43832.0, 43832.0, 43867.0, 43892.0, 43835.0, 43777.0, 43796.0, 43893.0, 43864.0, 43865.0, 43835.0, 43938.0, 43986.0, 43941.0, 43851.0, 43876.0, 43918.0, 43846.0, 43778.0, 43793.0, 43887.0, 43934.0, 43959.0, 43893.0, 43829.0, 43772.0, 43817.0, 43869.0, 43964.0, 43999.0, 43944.0, 43872.0, 43769.0, 43858.0, 43863.0, 43815.0, 43772.0, 43812.0, 43878.0, 43914.0, 43872.0, 43882.0, 43880.0, 43802.0, 43707.0, 43681.0, 43878.0, 43881.0, 43813.0, 43749.0, 43740.0, 43748.0, 43804.0, 43813.0, 43830.0, 43844.0, 43920.0, 43961.0, 43993.0, 43927.0, 43871.0, 43866.0, 43980.0, 44006.0, 43995.0, 43896.0, 43877.0, 43945.0, 44011.0, 43983.0, 43915.0, 43842.0, 43821.0, 43790.0, 43792.0, 43849.0, 43942.0, 43905.0, 43860.0, 43879.0, 43911.0, 43955.0, 44021.0, 43903.0, 43798.0, 43645.0, 43581.0, 43639.0, 43729.0, 43758.0, 43822.0, 43867.0, 43871.0, 43862.0, 43843.0, 43907.0, 43942.0, 43956.0, 43911.0, 43875.0, 43872.0, 43944.0, 43922.0, 43880.0, 43855.0, 43942.0, 43982.0, 43967.0, 43872.0, 43811.0, 43793.0, 43901.0, 43922.0, 43869.0, 43851.0, 43905.0, 43934.0, 43954.0, 43953.0, 43916.0, 43915.0, 43934.0, 43928.0, 43914.0, 43853.0, 43851.0, 43944.0, 43988.0, 43971.0, 43932.0, 43968.0, 43955.0, 43965.0, 43905.0, 43874.0, 43852.0, 43890.0, 43976.0, 44005.0, 43892.0, 43877.0, 43807.0, 43890.0, 43840.0, 43756.0, 43668.0, 43640.0, 43690.0, 43774.0, 43870.0, 43899.0, 43865.0, 43852.0, 43926.0, 44021.0, 43982.0, 43896.0, 43836.0, 43856.0, 43873.0, 43887.0, 43867.0, 43898.0, 43948.0, 43958.0, 43971.0, 43975.0, 44024.0, 44013.0, 43935.0, 43897.0, 43960.0, 43990.0, 43943.0, 43870.0, 43837.0, 43872.0, 43933.0, 43962.0, 43967.0, 43931.0, 43895.0, 43913.0, 43936.0, 43935.0, 43962.0, 43913.0, 43913.0, 43891.0, 43912.0, 43951.0, 43957.0, 43919.0, 43928.0, 43918.0, 43882.0, 43927.0, 43894.0, 43847.0, 43838.0, 43863.0, 43903.0, 43940.0, 43882.0, 43872.0, 43847.0, 43923.0, 43979.0, 44074.0, 43954.0, 43824.0, 43720.0, 43582.0, 43604.0, 43636.0, 43708.0, 43694.0, 43753.0, 43776.0, 43801.0, 43804.0, 43816.0, 43830.0, 43873.0, 43885.0, 43917.0, 43926.0, 43883.0, 43811.0, 43804.0, 43879.0, 43925.0, 43864.0, 43838.0, 43850.0, 43873.0, 43874.0, 43914.0, 43999.0, 43951.0, 43837.0, 43721.0, 43730.0, 43734.0, 43804.0, 43802.0, 43760.0, 43742.0]
    },
    "slices": {}
  }
}