{
  "AcquisitionMatrixPE": 116,
  "AcquisitionNumber": 1,
  "AcquisitionTime": "17:35:38.835000",
  "BandwidthPerPixelPhaseEncode": 18.539,
  "BaseResolution": 116,
  "BodyPartExamined": "HEAD",
  "ConsistencyInfo": "N4_VD13D_LATEST_20130810",
  "ConversionSoftware": "dcm2niix",
  "ConversionSoftwareVersion": "v1.0.20190410  (JP2:OpenJPEG) (JP-LS:CharLS) GCC5.5.0",
  "DerivedVendorReportedEchoSpacing": 0.000930006,
  "DeviceSerialNumber": "66014",
  "DwellTime": 3e-06,
  "EchoTime": 0.03,
  "EchoTrainLength": 50,
  "EffectiveEchoSpacing": 0.000465003,
  "FlipAngle": 81,
  "ImageComments": "Unaliased_MB3_PE4",
  "ImageOrientationPatientDICOM": [0.995879, -0.0905306, 0.00534459, 0.0906321, 0.99146, -0.0937686],
  "ImageType": [
    "ORIGINAL",
    "PRIMARY",
    "M",
    "MB",
    "ND",
    "MOSAIC"
],
  "ImagingFrequency": 123.261,
  "InPlanePhaseEncodingDirectionDICOM": "COL",
  "InstitutionAddress": "Yiheyuan_Road_5_Beijing_Haidian_CN_100871",
  "InstitutionName": "Peking_University",
  "InstitutionalDepartmentName": "Department",
  "MRAcquisitionType": "2D",
  "MagneticFieldStrength": 3,
  "Manufacturer": "Siemens",
  "ManufacturersModelName": "Prisma",
  "Modality": "MR",
  "MultibandAccelerationFactor": 3,
  "ParallelReductionFactorInPlane": 2,
  "PartialFourier": 0.875,
  "PatientPosition": "HFS",
  "PercentPhaseFOV": 100,
  "PhaseEncodingDirection": "j-",
  "PhaseEncodingSteps": 101,
  "PhaseResolution": 1,
  "PixelBandwidth": 1435,
  "ProcedureStepDescription": "Research_Projects_64CH",
  "ProtocolName": "mbep2d_bold_MB3_test3",
  "PulseSequenceDetails": "%CustomerSeq%_cmrr_mbep2d_bold",
  "ReceiveCoilActiveElements": "HC1-6",
  "ReceiveCoilName": "HeadNeck_64",
  "ReconMatrixPE": 116,
  "RefLinesPE": 44,
  "RepetitionTime": 2,
  "SAR": 0.0604079,
  "ScanOptions": "PFP_FS",
  "ScanningSequence": "EP",
  "SequenceName": "epfid2d1_116",
  "SequenceVariant": "SK_SS",
  "SeriesDescription": "mbep2d_bold_MB3_test3",
  "SeriesNumber": 8,
  "ShimSetting": [-3453, -2099, -1995, 168, -35, -149, -127, -19],
  "SliceThickness": 1.9,
  "SliceTiming": [0, 0.9075, 1.815, 0.7425, 1.65, 0.5775, 1.485, 0.4125, 1.32, 0.2475, 1.155, 0.0825, 0.99, 1.8975, 0.825, 1.7325, 0.66, 1.5675, 0.495, 1.4025, 0.33, 1.2375, 0.165, 1.0725, 0, 0.9075, 1.815, 0.7425, 1.65, 0.5775, 1.485, 0.4125, 1.32, 0.2475, 1.155, 0.0825, 0.99, 1.8975, 0.825, 1.7325, 0.66, 1.5675, 0.495, 1.4025, 0.33, 1.2375, 0.165, 1.0725, 0, 0.9075, 1.815, 0.7425, 1.65, 0.5775, 1.485, 0.4125, 1.32, 0.2475, 1.155, 0.0825, 0.99, 1.8975, 0.825, 1.7325, 0.66, 1.5675, 0.495, 1.4025, 0.33, 1.2375, 0.165, 1.0725],
  "SoftwareVersions": "syngo_MR_D13D",
  "SpacingBetweenSlices": 1.9,
  "StationName": "AWP66014",
  "TaskName": "retrieval",
  "TotalReadoutTime": 0.0534753,
  "TxRefAmp": 228.246,
  "WipMemBlock": "b1a33e2a-729a-4d85-ba9e-9ba554410a81||Sequence: vd13d/master r/0735857; Nov 19 2014 09:21:40 by eja",
  "dcmmeta_affine": [
    [-1.8887367248535156, 0.17188847064971924, -0.0060609616339206696, 99.689208984375],
    [0.17169596254825592, 1.8803554773330688, -0.17834654450416565, -109.05008697509766],
    [0.01013629138469696, 0.17783699929714203, 1.8916014432907104, -70.3969955444336],
    [0.0, 0.0, 0.0, 1.0]
],
  "dcmmeta_reorient_transform": [
    [0.0, -1.0, 0.0, 115.0],
    [1.0, 0.0, 0.0, 0.0],
    [0.0, 0.0, 1.0, 0.0],
    [0.0, 0.0, 0.0, 1.0]
],
  "dcmmeta_shape": [116, 116, 72, 289],
  "dcmmeta_slice_dim": 2,
  "dcmmeta_version": 0.6,
  "global": {
    "const": {
      "AcquisitionMatrix": [116, 0, 0, 116],
      "AngioFlag": "N",
      "BitsAllocated": 16,
      "BitsStored": 16,
      "BodyPartExamined": "HEAD",
      "Columns": 1044,
      "EchoNumbers": 1,
      "EchoTime": 30.0,
      "EchoTrainLength": 50,
      "FlipAngle": 81.0,
      "HighBit": 15,
      "ImageOrientationPatient": [0.99587933287997, -0.0905306009198, 0.0053445897542, 0.09063210453287, 0.99146017144223, -0.0937685985375],
      "ImagePositionPatient": [-1075.5864517072, -900.00881682762, 27.867386530511],
      "ImageType": [
        "ORIGINAL",
        "PRIMARY",
        "M",
        "MB",
        "ND",
        "MOSAIC"
],
      "ImagedNucleus": "1H",
      "ImagingFrequency": 123.260632,
      "InPlanePhaseEncodingDirection": "COL",
      "LargestImagePixelValue": 65535,
      "MRAcquisitionType": "2D",
      "MagneticFieldStrength": 3.0,
      "Manufacturer": "SIEMENS",
      "ManufacturerModelName": "Prisma",
      "Modality": "MR",
      "NumberOfAverages": 1.0,
      "NumberOfPhaseEncodingSteps": 101,
      "PercentPhaseFieldOfView": 100.0,
      "PercentSampling": 100.0,
      "PerformedProcedureStepStartTime": "170112.364000",
      "PhotometricInterpretation": "MONOCHROME2",
      "PixelBandwidth": 1435.0,
      "PixelRepresentation": 0,
      "PixelSpacing": [1.8965517282486, 1.8965517282486],
      "ProtocolName": "mbep2d_bold_MB3_test3",
      "RepetitionTime": 2000.0,
      "Rows": 1044,
      "SAR": 0.06040787920934,
      "SamplesPerPixel": 1,
      "ScanOptions": [
        "PFP",
        "FS"
],
      "ScanningSequence": "EP",
      "SequenceName": "epfid2d1_116",
      "SequenceVariant": [
        "SK",
        "SS"
],
      "SeriesDescription": "mbep2d_bold_MB3_test3",
      "SeriesNumber": 8,
      "SeriesTime": "173553.829000",
      "SliceLocation": -60.167663678298,
      "SliceThickness": 1.8999999761581,
      "SmallestImagePixelValue": 0,
      "SoftwareVersions": "syngo MR D13D",
      "SpacingBetweenSlices": 1.9000000223621,
      "SpecificCharacterSet": "ISO_IR 100",
      "StudyID": "1",
      "StudyTime": "170112.269000",
      "TimeOfLastCalibration": ["123723.000000", "123723.000000"],
      "TransmitCoilName": "Body",
      "VariableFlipAngleFlag": "N",
      "WindowCenterWidthExplanation": "Algo1",
      "dBdt": 0.0},
    "slices": {}
  },
  "time": {
    "samples": {
      "AcquisitionNumber": [1, 2, 3, 4, 5, 6, 7, 8, 9, 10, 11, 12, 13, 14, 15, 16, 17, 18, 19, 20, 21, 22, 23, 24, 25, 26, 27, 28, 29, 30, 31, 32, 33, 34, 35, 36, 37, 38, 39, 40, 41, 42, 43, 44, 45, 46, 47, 48, 49, 50, 51, 52, 53, 54, 55, 56, 57, 58, 59, 60, 61, 62, 63, 64, 65, 66, 67, 68, 69, 70, 71, 72, 73, 74, 75, 76, 77, 78, 79, 80, 81, 82, 83, 84, 85, 86, 87, 88, 89, 90, 91, 92, 93, 94, 95, 96, 97, 98, 99, 100, 101, 102, 103, 104, 105, 106, 107, 108, 109, 110, 111, 112, 113, 114, 115, 116, 117, 118, 119, 120, 121, 122, 123, 124, 125, 126, 127, 128, 129, 130, 131, 132, 133, 134, 135, 136, 137, 138, 139, 140, 141, 142, 143, 144, 145, 146, 147, 148, 149, 150, 151, 152, 153, 154, 155, 156, 157, 158, 159, 160, 161, 162, 163, 164, 165, 166, 167, 168, 169, 170, 171, 172, 173, 174, 175, 176, 177, 178, 179, 180, 181, 182, 183, 184, 185, 186, 187, 188, 189, 190, 191, 192, 193, 194, 195, 196, 197, 198, 199, 200, 201, 202, 203, 204, 205, 206, 207, 208, 209, 210, 211, 212, 213, 214, 215, 216, 217, 218, 219, 220, 221, 222, 223, 224, 225, 226, 227, 228, 229, 230, 231, 232, 233, 234, 235, 236, 237, 238, 239, 240, 241, 242, 243, 244, 245, 246, 247, 248, 249, 250, 251, 252, 253, 254, 255, 256, 257, 258, 259, 260, 261, 262, 263, 264, 265, 266, 267, 268, 269, 270, 271, 272, 273, 274, 275, 276, 277, 278, 279, 280, 281, 282, 283, 284, 285, 286, 287, 288, 289],
      "AcquisitionTime": ["173538.835000", "173540.835000", "173542.835000", "173544.835000", "173546.835000", "173548.835000", "173550.835000", "173552.835000", "173554.835000", "173556.835000", "173558.835000", "173600.835000", "173602.835000", "173604.835000", "173606.835000", "173608.835000", "173610.835000", "173612.835000", "173614.835000", "173616.835000", "173618.835000", "173620.835000", "173622.835000", "173624.835000", "173626.835000", "173628.835000", "173630.835000", "173632.835000", "173634.835000", "173636.835000", "173638.835000", "173640.835000", "173642.835000", "173644.835000", "173646.835000", "173648.835000", "173650.835000", "173652.835000", "173654.835000", "173656.835000", "173658.835000", "173700.835000", "173702.835000", "173704.835000", "173706.835000", "173708.835000", "173710.835000", "173712.835000", "173714.835000", "173716.835000", "173718.835000", "173720.835000", "173722.835000", "173724.837500", "173726.837500", "173728.837500", "173730.837500", "173732.837500", "173734.837500", "173736.837500", "173738.837500", "173740.837500", "173742.837500", "173744.837500", "173746.837500", "173748.837500", "173750.837500", "173752.837500", "173754.837500", "173756.837500", "173758.837500", "173800.837500", "173802.837500", "173804.837500", "173806.837500", "173808.837500", "173810.837500", "173812.837500", "173814.837500", "173816.837500", "173818.837500", "173820.837500", "173822.837500", "173824.837500", "173826.837500", "173828.837500", "173830.837500", "173832.837500", "173834.837500", "173836.837500", "173838.837500", "173840.837500", "173842.837500", "173844.837500", "173846.837500", "173848.837500", "173850.837500", "173852.837500", "173854.837500", "173856.837500", "173858.837500", "173900.837500", "173902.837500", "173904.837500", "173906.837500", "173908.837500", "173910.837500", "173912.837500", "173914.837500", "173916.837500", "173918.837500", "173920.837500", "173922.837500", "173924.837500", "173926.837500", "173928.837500", "173930.837500", "173932.837500", "173934.837500", "173936.837500", "173938.837500", "173940.837500", "173942.837500", "173944.837500", "173946.837500", "173948.837500", "173950.837500", "173952.837500", "173954.837500", "173956.837500", "173958.837500", "174000.837500", "174002.837500", "174004.837500", "174006.837500", "174008.837500", "174010.837500", "174012.837500", "174014.837500", "174016.837500", "174018.837500", "174020.837500", "174022.837500", "174024.837500", "174026.837500", "174028.837500", "174030.837500", "174032.837500", "174034.837500", "174036.837500", "174038.837500", "174040.837500", "174042.837500", "174044.837500", "174046.837500", "174048.837500", "174050.837500", "174052.837500", "174054.837500", "174056.837500", "174058.837500", "174100.837500", "174102.837500", "174104.837500", "174106.837500", "174108.837500", "174110.837500", "174112.837500", "174114.837500", "174116.837500", "174118.837500", "174120.837500", "174122.837500", "174124.837500", "174126.837500", "174128.837500", "174130.837500", "174132.837500", "174134.837500", "174136.837500", "174138.837500", "174140.837500", "174142.837500", "174144.837500", "174146.837500", "174148.837500", "174150.837500", "174152.837500", "174154.837500", "174156.837500", "174158.837500", "174200.837500", "174202.837500", "174204.837500", "174206.837500", "174208.837500", "174210.837500", "174212.837500", "174214.837500", "174216.837500", "174218.837500", "174220.837500", "174222.837500", "174224.837500", "174226.837500", "174228.837500", "174230.837500", "174232.837500", "174234.837500", "174236.837500", "174238.837500", "174240.837500", "174242.837500", "174244.837500", "174246.837500", "174248.837500", "174250.837500", "174252.837500", "174254.837500", "174256.837500", "174258.837500", "174300.837500", "174302.837500", "174304.837500", "174306.837500", "174308.837500", "174310.837500", "174312.837500", "174314.837500", "174316.837500", "174318.837500", "174320.837500", "174322.837500", "174324.837500", "174326.837500", "174328.837500", "174330.837500", "174332.837500", "174334.837500", "174336.837500", "174338.837500", "174340.837500", "174342.837500", "174344.837500", "174346.837500", "174348.837500", "174350.837500", "174352.837500", "174354.837500", "174356.837500", "174358.837500", "174400.837500", "174402.837500", "174404.837500", "174406.837500", "174408.837500", "174410.837500", "174412.837500", "174414.837500", "174416.837500", "174418.837500", "174420.837500", "174422.837500", "174424.837500", "174426.837500", "174428.837500", "174430.837500", "174432.837500", "174434.837500", "174436.837500", "174438.837500", "174440.837500", "174442.837500", "174444.837500", "174446.837500", "174448.837500", "174450.837500", "174452.837500", "174454.837500", "174456.837500", "174458.837500", "174500.837500", "174502.837500", "174504.837500", "174506.837500", "174508.837500", "174510.837500", "174512.837500", "174514.837500"],
      "ContentTime": ["173553.835000", "173554.826000", "173554.830000", "173555.826000", "173556.829000", "173556.833000", "173557.826000", "173558.827000", "173600.829000", "173602.827000", "173604.826000", "173606.827000", "173608.828000", "173610.828000", "173612.828000", "173614.828000", "173616.828000", "173618.827000", "173620.827000", "173622.826000", "173624.827000", "173626.828000", "173628.828000", "173630.828000", "173632.828000", "173634.829000", "173636.827000", "173638.827000", "173640.827000", "173642.827000", "173644.827000", "173646.828000", "173648.828000", "173650.828000", "173652.827000", "173654.826000", "173656.827000", "173658.827000", "173700.828000", "173702.828000", "173704.828000", "173706.828000", "173708.828000", "173710.828000", "173712.827000", "173714.827000", "173716.827000", "173718.828000", "173720.828000", "173722.827000", "173724.828000", "173726.829000", "173728.827000", "173730.827000", "173732.827000", "173734.827000", "173736.828000", "173738.828000", "173740.828000", "173742.828000", "173744.828000", "173746.827000", "173748.827000", "173750.826000", "173752.827000", "173754.828000", "173756.828000", "173758.829000", "173800.828000", "173802.829000", "173804.828000", "173806.827000", "173808.827000", "173810.827000", "173812.828000", "173814.827000", "173816.828000", "173818.828000", "173820.828000", "173822.827000", "173824.827000", "173826.828000", "173828.828000", "173830.828000", "173832.828000", "173834.828000", "173836.828000", "173838.827000", "173840.827000", "173842.827000", "173844.827000", "173846.827000", "173848.828000", "173850.828000", "173852.828000", "173854.828000", "173856.827000", "173858.827000", "173900.827000", "173902.827000", "173904.828000", "173906.828000", "173908.827000", "173910.828000", "173912.828000", "173914.827000", "173916.827000", "173918.827000", "173920.828000", "173922.828000", "173924.828000", "173926.828000", "173928.830000", "173930.831000", "173932.830000", "173934.828000", "173936.827000", "173938.828000", "173940.828000", "173942.828000", "173944.828000", "173946.826000", "173948.827000", "173950.827000", "173952.827000", "173954.827000", "173956.828000", "173958.828000", "174000.828000", "174002.829000", "174004.828000", "174006.827000", "174008.827000", "174010.827000", "174012.827000", "174014.828000", "174016.827000", "174018.828000", "174020.828000", "174022.828000", "174024.827000", "174026.827000", "174028.826000", "174030.828000", "174032.828000", "174034.828000", "174036.828000", "174038.828000", "174040.828000", "174042.827000", "174044.827000", "174046.828000", "174048.828000", "174050.828000", "174052.828000", "174054.828000", "174056.826000", "174058.827000", "174100.827000", "174102.826000", "174104.827000", "174106.828000", "174108.828000", "174110.828000", "174112.827000", "174114.828000", "174116.827000", "174118.827000", "174120.827000", "174122.826000", "174124.828000", "174126.828000", "174128.828000", "174130.828000", "174132.829000", "174134.827000", "174136.827000", "174138.827000", "174140.827000", "174142.828000", "174144.828000", "174146.828000", "174148.828000", "174150.828000", "174152.828000", "174154.827000", "174156.827000", "174158.829000", "174200.828000", "174202.828000", "174204.828000", "174206.828000", "174208.827000", "174210.827000", "174212.828000", "174214.826000", "174216.828000", "174218.829000", "174220.834000", "174222.828000", "174224.828000", "174226.827000", "174228.827000", "174230.827000", "174232.827000", "174234.828000", "174236.828000", "174238.828000", "174240.828000", "174242.828000", "174244.827000", "174246.827000", "174248.827000", "174250.828000", "174252.828000", "174254.828000", "174256.828000", "174258.828000", "174300.828000", "174302.827000", "174304.827000", "174306.827000", "174308.828000", "174310.828000", "174312.828000", "174314.828000", "174316.827000", "174318.827000", "174320.827000", "174322.827000", "174324.827000", "174326.828000", "174328.828000", "174330.828000", "174332.828000", "174334.828000", "174336.827000", "174338.827000", "174340.828000", "174342.826000", "174344.828000", "174346.828000", "174348.828000", "174350.828000", "174352.829000", "174354.828000", "174356.827000", "174358.827000", "174400.829000", "174402.828000", "174404.828000", "174406.828000", "174408.828000", "174410.828000", "174412.827000", "174414.827000", "174416.828000", "174418.828000", "174420.829000", "174422.828000", "174424.828000", "174426.827000", "174428.827000", "174430.827000", "174432.828000", "174434.827000", "174436.828000", "174438.828000", "174440.828000", "174442.829000", "174444.828000", "174446.828000", "174448.827000", "174450.827000", "174452.828000", "174454.828000", "174456.828000", "174458.828000", "174500.829000", "174502.828000", "174504.827000", "174506.828000", "174508.827000", "174510.829000", "174512.828000", "174514.828000", "174516.829000", "174518.828000", "174520.513000"],
      "InstanceCreationTime": ["173553.835000", "173554.826000", "173554.830000", "173555.826000", "173556.829000", "173556.833000", "173557.826000", "173558.827000", "173600.829000", "173602.827000", "173604.826000", "173606.827000", "173608.828000", "173610.828000", "173612.828000", "173614.828000", "173616.828000", "173618.827000", "173620.827000", "173622.826000", "173624.827000", "173626.828000", "173628.828000", "173630.828000", "173632.828000", "173634.829000", "173636.827000", "173638.827000", "173640.827000", "173642.827000", "173644.827000", "173646.828000", "173648.828000", "173650.828000", "173652.827000", "173654.826000", "173656.827000", "173658.827000", "173700.828000", "173702.828000", "173704.828000", "173706.828000", "173708.828000", "173710.828000", "173712.827000", "173714.827000", "173716.827000", "173718.828000", "173720.828000", "173722.827000", "173724.828000", "173726.829000", "173728.827000", "173730.827000", "173732.827000", "173734.827000", "173736.828000", "173738.828000", "173740.828000", "173742.828000", "173744.828000", "173746.827000", "173748.827000", "173750.826000", "173752.827000", "173754.828000", "173756.828000", "173758.829000", "173800.828000", "173802.829000", "173804.828000", "173806.827000", "173808.827000", "173810.827000", "173812.828000", "173814.827000", "173816.828000", "173818.828000", "173820.828000", "173822.827000", "173824.827000", "173826.828000", "173828.828000", "173830.828000", "173832.828000", "173834.828000", "173836.828000", "173838.827000", "173840.827000", "173842.827000", "173844.827000", "173846.827000", "173848.828000", "173850.828000", "173852.828000", "173854.828000", "173856.827000", "173858.827000", "173900.827000", "173902.827000", "173904.828000", "173906.828000", "173908.827000", "173910.828000", "173912.828000", "173914.827000", "173916.827000", "173918.827000", "173920.828000", "173922.828000", "173924.828000", "173926.828000", "173928.830000", "173930.831000", "173932.830000", "173934.828000", "173936.827000", "173938.828000", "173940.828000", "173942.828000", "173944.828000", "173946.826000", "173948.827000", "173950.827000", "173952.827000", "173954.827000", "173956.828000", "173958.828000", "174000.828000", "174002.829000", "174004.828000", "174006.827000", "174008.827000", "174010.827000", "174012.827000", "174014.828000", "174016.827000", "174018.828000", "174020.828000", "174022.828000", "174024.827000", "174026.827000", "174028.826000", "174030.828000", "174032.828000", "174034.828000", "174036.828000", "174038.828000", "174040.828000", "174042.827000", "174044.827000", "174046.828000", "174048.828000", "174050.828000", "174052.828000", "174054.828000", "174056.826000", "174058.827000", "174100.827000", "174102.826000", "174104.827000", "174106.828000", "174108.828000", "174110.828000", "174112.827000", "174114.828000", "174116.827000", "174118.827000", "174120.827000", "174122.826000", "174124.828000", "174126.828000", "174128.828000", "174130.828000", "174132.829000", "174134.827000", "174136.827000", "174138.827000", "174140.827000", "174142.828000", "174144.828000", "174146.828000", "174148.828000", "174150.828000", "174152.828000", "174154.827000", "174156.827000", "174158.829000", "174200.828000", "174202.828000", "174204.828000", "174206.828000", "174208.827000", "174210.827000", "174212.828000", "174214.826000", "174216.828000", "174218.829000", "174220.834000", "174222.828000", "174224.828000", "174226.827000", "174228.827000", "174230.827000", "174232.827000", "174234.828000", "174236.828000", "174238.828000", "174240.828000", "174242.828000", "174244.827000", "174246.827000", "174248.827000", "174250.828000", "174252.828000", "174254.828000", "174256.828000", "174258.828000", "174300.828000", "174302.827000", "174304.827000", "174306.827000", "174308.828000", "174310.828000", "174312.828000", "174314.828000", "174316.827000", "174318.827000", "174320.827000", "174322.827000", "174324.827000", "174326.828000", "174328.828000", "174330.828000", "174332.828000", "174334.828000", "174336.827000", "174338.827000", "174340.828000", "174342.826000", "174344.828000", "174346.828000", "174348.828000", "174350.828000", "174352.829000", "174354.828000", "174356.827000", "174358.827000", "174400.829000", "174402.828000", "174404.828000", "174406.828000", "174408.828000", "174410.828000", "174412.827000", "174414.827000", "174416.828000", "174418.828000", "174420.829000", "174422.828000", "174424.828000", "174426.827000", "174428.827000", "174430.827000", "174432.828000", "174434.827000", "174436.828000", "174438.828000", "174440.828000", "174442.829000", "174444.828000", "174446.828000", "174448.827000", "174450.827000", "174452.828000", "174454.828000", "174456.828000", "174458.828000", "174500.829000", "174502.828000", "174504.827000", "174506.828000", "174508.827000", "174510.829000", "174512.828000", "174514.828000", "174516.829000", "174518.828000", "174520.513000"],
      "InstanceNumber": [1, 2, 3, 4, 5, 6, 7, 8, 9, 10, 11, 12, 13, 14, 15, 16, 17, 18, 19, 20, 21, 22, 23, 24, 25, 26, 27, 28, 29, 30, 31, 32, 33, 34, 35, 36, 37, 38, 39, 40, 41, 42, 43, 44, 45, 46, 47, 48, 49, 50, 51, 52, 53, 54, 55, 56, 57, 58, 59, 60, 61, 62, 63, 64, 65, 66, 67, 68, 69, 70, 71, 72, 73, 74, 75, 76, 77, 78, 79, 80, 81, 82, 83, 84, 85, 86, 87, 88, 89, 90, 91, 92, 93, 94, 95, 96, 97, 98, 99, 100, 101, 102, 103, 104, 105, 106, 107, 108, 109, 110, 111, 112, 113, 114, 115, 116, 117, 118, 119, 120, 121, 122, 123, 124, 125, 126, 127, 128, 129, 130, 131, 132, 133, 134, 135, 136, 137, 138, 139, 140, 141, 142, 143, 144, 145, 146, 147, 148, 149, 150, 151, 152, 153, 154, 155, 156, 157, 158, 159, 160, 161, 162, 163, 164, 165, 166, 167, 168, 169, 170, 171, 172, 173, 174, 175, 176, 177, 178, 179, 180, 181, 182, 183, 184, 185, 186, 187, 188, 189, 190, 191, 192, 193, 194, 195, 196, 197, 198, 199, 200, 201, 202, 203, 204, 205, 206, 207, 208, 209, 210, 211, 212, 213, 214, 215, 216, 217, 218, 219, 220, 221, 222, 223, 224, 225, 226, 227, 228, 229, 230, 231, 232, 233, 234, 235, 236, 237, 238, 239, 240, 241, 242, 243, 244, 245, 246, 247, 248, 249, 250, 251, 252, 253, 254, 255, 256, 257, 258, 259, 260, 261, 262, 263, 264, 265, 266, 267, 268, 269, 270, 271, 272, 273, 274, 275, 276, 277, 278, 279, 280, 281, 282, 283, 284, 285, 286, 287, 288, 289],
      "WindowCenter": [18433.0, 18396.0, 18374.0, 18373.0, 18359.0, 18336.0, 18356.0, 18330.0, 18348.0, 18333.0, 18327.0, 18346.0, 18354.0, 18336.0, 18330.0, 18348.0, 18345.0, 18348.0, 18325.0, 18344.0, 18345.0, 18330.0, 18332.0, 18343.0, 18331.0, 18328.0, 18326.0, 18338.0, 18361.0, 18342.0, 18348.0, 18335.0, 18330.0, 18349.0, 18348.0, 18338.0, 18339.0, 18324.0, 18327.0, 18339.0, 18343.0, 18349.0, 18341.0, 18340.0, 18357.0, 18345.0, 18334.0, 18344.0, 18354.0, 18344.0, 18361.0, 18358.0, 18353.0, 18364.0, 18339.0, 18337.0, 18363.0, 18342.0, 18330.0, 18325.0, 18332.0, 18341.0, 18332.0, 18340.0, 18345.0, 18331.0, 18340.0, 18352.0, 18367.0, 18353.0, 18333.0, 18326.0, 18334.0, 18316.0, 18357.0, 18347.0, 18329.0, 18352.0, 18345.0, 18315.0, 18333.0, 18353.0, 18348.0, 18337.0, 18355.0, 18351.0, 18369.0, 18350.0, 18357.0, 18351.0, 18345.0, 18349.0, 18359.0, 18358.0, 18362.0, 18357.0, 18358.0, 18334.0, 18342.0, 18341.0, 18353.0, 18355.0, 18351.0, 18349.0, 18346.0, 18353.0, 18363.0, 18351.0, 18361.0, 18352.0, 18353.0, 18364.0, 18366.0, 18367.0, 18366.0, 18355.0, 18357.0, 18366.0, 18378.0, 18373.0, 18355.0, 18344.0, 18347.0, 18371.0, 18357.0, 18375.0, 18349.0, 18365.0, 18348.0, 18365.0, 18367.0, 18373.0, 18370.0, 18350.0, 18331.0, 18357.0, 18368.0, 18360.0, 18336.0, 18363.0, 18355.0, 18366.0, 18365.0, 18343.0, 18346.0, 18331.0, 18332.0, 18344.0, 18348.0, 18344.0, 18329.0, 18351.0, 18324.0, 18344.0, 18381.0, 18347.0, 18356.0, 18320.0, 18352.0, 18345.0, 18357.0, 18349.0, 18362.0, 18355.0, 18350.0, 18362.0, 18337.0, 18355.0, 18354.0, 18350.0, 18342.0, 18341.0, 18332.0, 18333.0, 18344.0, 18346.0, 18364.0, 18358.0, 18373.0, 18373.0, 18368.0, 18362.0, 18347.0, 18353.0, 18334.0, 18356.0, 18368.0, 18372.0, 18343.0, 18347.0, 18337.0, 18354.0, 18354.0, 18360.0, 18348.0, 18332.0, 18338.0, 18337.0, 18328.0, 18338.0, 18334.0, 18341.0, 18339.0, 18350.0, 18339.0, 18346.0, 18365.0, 18350.0, 18346.0, 18329.0, 18327.0, 18338.0, 18350.0, 18341.0, 18362.0, 18358.0, 18354.0, 18346.0, 18353.0, 18360.0, 18331.0, 18353.0, 18339.0, 18349.0, 18347.0, 18346.0, 18350.0, 18341.0, 18359.0, 18350.0, 18357.0, 18360.0, 18352.0, 18375.0, 18370.0, 18344.0, 18348.0, 18346.0, 18376.0, 18347.0, 18367.0, 18353.0, 18337.0, 18342.0, 18345.0, 18367.0, 18337.0, 18351.0, 18338.0, 18346.0, 18365.0, 18357.0, 18380.0, 18355.0, 18368.0, 18363.0, 18372.0, 18362.0, 18361.0, 18349.0, 18370.0, 18363.0, 18348.0, 18373.0, 18386.0, 18362.0, 18346.0, 18345.0, 18352.0, 18350.0, 18359.0, 18359.0, 18365.0, 18380.0, 18364.0, 18342.0, 18358.0, 18373.0, 18361.0, 18370.0, 18365.0, 18389.0, 18373.0, 18380.0, 18360.0, 18350.0, 18363.0, 18356.0, 18359.0],
      "WindowWidth": [49216.0, 49096.0, 49151.0, 49125.0, 49081.0, 49045.0, 49045.0, 49041.0, 49064.0, 49053.0, 49014.0, 48990.0, 48982.0, 48984.0, 49016.0, 49063.0, 49048.0, 49025.0, 49036.0, 49130.0, 49106.0, 49051.0, 49017.0, 49000.0, 49018.0, 49016.0, 48996.0, 49225.0, 49142.0, 49049.0, 48992.0, 49044.0, 49077.0, 49065.0, 49016.0, 49021.0, 49010.0, 49037.0, 49063.0, 49094.0, 49095.0, 49087.0, 49069.0, 49058.0, 49103.0, 49119.0, 49137.0, 49107.0, 49127.0, 49144.0, 49131.0, 49152.0, 49126.0, 49120.0, 49129.0, 49116.0, 49179.0, 49131.0, 49075.0, 49073.0, 49065.0, 49082.0, 49089.0, 49059.0, 49049.0, 49029.0, 49034.0, 49100.0, 49110.0, 49054.0, 49007.0, 49003.0, 48995.0, 49042.0, 49091.0, 49132.0, 49121.0, 49040.0, 48990.0, 49008.0, 49031.0, 49078.0, 49052.0, 49058.0, 49056.0, 49043.0, 49066.0, 49102.0, 49093.0, 49040.0, 49026.0, 49041.0, 49082.0, 49106.0, 49059.0, 49045.0, 49022.0, 49044.0, 49049.0, 49059.0, 49077.0, 49055.0, 49078.0, 49064.0, 49087.0, 49102.0, 49073.0, 49077.0, 49061.0, 49091.0, 49115.0, 49122.0, 49074.0, 49075.0, 49099.0, 49118.0, 49131.0, 49098.0, 49082.0, 49077.0, 49081.0, 49050.0, 49065.0, 49089.0, 49116.0, 49102.0, 49065.0, 49062.0, 49065.0, 49099.0, 49110.0, 49078.0, 49065.0, 49054.0, 49126.0, 49141.0, 49063.0, 49010.0, 49021.0, 49060.0, 49081.0, 49111.0, 49107.0, 49082.0, 49074.0, 49053.0, 49053.0, 49061.0, 49028.0, 49012.0, 49003.0, 49029.0, 49061.0, 49050.0, 49047.0, 49014.0, 49020.0, 49034.0, 49054.0, 49025.0, 48996.0, 48980.0, 48988.0, 49007.0, 48994.0, 49000.0, 48973.0, 49020.0, 49018.0, 49005.0, 49023.0, 48999.0, 49005.0, 49029.0, 49084.0, 49050.0, 49062.0, 49058.0, 49092.0, 49079.0, 49087.0, 49037.0, 49064.0, 49053.0, 49055.0, 49091.0, 49111.0, 49089.0, 49073.0, 49038.0, 49031.0, 49054.0, 49102.0, 49095.0, 49086.0, 49005.0, 48984.0, 48960.0, 48991.0, 48996.0, 49018.0, 49022.0, 48996.0, 48991.0, 48974.0, 48992.0, 49061.0, 49064.0, 49013.0, 48955.0, 48966.0, 48962.0, 49019.0, 49024.0, 49011.0, 49020.0, 49018.0, 48991.0, 48948.0, 48963.0, 48993.0, 49006.0, 49009.0, 49028.0, 49050.0, 49038.0, 49041.0, 49024.0, 49033.0, 49028.0, 49043.0, 49035.0, 49043.0, 49044.0, 49040.0, 49061.0, 49051.0, 49038.0, 49019.0, 48992.0, 49003.0, 48994.0, 48973.0, 49000.0, 48988.0, 48980.0, 48961.0, 48981.0, 48986.0, 48991.0, 49027.0, 49035.0, 49048.0, 49034.0, 49030.0, 49015.0, 48995.0, 48989.0, 49000.0, 49030.0, 49019.0, 49062.0, 49086.0, 49066.0, 49025.0, 48999.0, 49026.0, 49039.0, 49054.0, 49040.0, 49047.0, 49045.0, 49038.0, 49046.0, 49013.0, 49072.0, 49091.0, 49066.0, 49048.0, 49029.0, 49087.0, 49087.0, 49090.0, 49011.0, 49025.0, 49067.0, 49049.0, 49008.0, 48976.0]
    },
    "slices": {}
  }
}