{
  "AcquisitionMatrixPE": 116,
  "AcquisitionNumber": 1,
  "AcquisitionTime": "11:54:19.312500",
  "BandwidthPerPixelPhaseEncode": 18.539,
  "BaseResolution": 116,
  "BodyPartExamined": "HEAD",
  "ConsistencyInfo": "N4_VD13D_LATEST_20130810",
  "ConversionSoftware": "dcm2niix",
  "ConversionSoftwareVersion": "v1.0.20190410  (JP2:OpenJPEG) (JP-LS:CharLS) GCC5.5.0",
  "DerivedVendorReportedEchoSpacing": 0.000930006,
  "DeviceSerialNumber": "66014",
  "DwellTime": 3e-06,
  "EchoTime": 0.03,
  "EchoTrainLength": 50,
  "EffectiveEchoSpacing": 0.000465003,
  "FlipAngle": 81,
  "ImageComments": "Unaliased_MB3_PE4",
  "ImageOrientationPatientDICOM": [0.999994, -0.00213206, -0.00278175, 0.00174532, 0.991209, -0.132295],
  "ImageType": [
    "ORIGINAL",
    "PRIMARY",
    "M",
    "MB",
    "ND",
    "MOSAIC"
],
  "ImagingFrequency": 123.261,
  "InPlanePhaseEncodingDirectionDICOM": "COL",
  "InstitutionAddress": "Yiheyuan_Road_5_Beijing_Haidian_CN_100871",
  "InstitutionName": "Peking_University",
  "InstitutionalDepartmentName": "Department",
  "MRAcquisitionType": "2D",
  "MagneticFieldStrength": 3,
  "Manufacturer": "Siemens",
  "ManufacturersModelName": "Prisma",
  "Modality": "MR",
  "MultibandAccelerationFactor": 3,
  "ParallelReductionFactorInPlane": 2,
  "PartialFourier": 0.875,
  "PatientPosition": "HFS",
  "PercentPhaseFOV": 100,
  "PhaseEncodingDirection": "j-",
  "PhaseEncodingSteps": 101,
  "PhaseResolution": 1,
  "PixelBandwidth": 1435,
  "ProcedureStepDescription": "Research_Projects_64CH",
  "ProtocolName": "mbep2d_bold_MB3_test2",
  "PulseSequenceDetails": "%CustomerSeq%_cmrr_mbep2d_bold",
  "ReceiveCoilActiveElements": "HC1-7",
  "ReceiveCoilName": "HeadNeck_64",
  "ReconMatrixPE": 116,
  "RefLinesPE": 44,
  "RepetitionTime": 2,
  "SAR": 0.06501,
  "ScanOptions": "PFP_FS",
  "ScanningSequence": "EP",
  "SequenceName": "epfid2d1_116",
  "SequenceVariant": "SK_SS",
  "SeriesDescription": "mbep2d_bold_MB3_test2",
  "SeriesNumber": 7,
  "ShimSetting": [-3456, -2092, -1943, 414, -12, -298, -40, 9],
  "SliceThickness": 1.9,
  "SliceTiming": [0, 0.905, 1.8125, 0.74, 1.6475, 0.575, 1.4825, 0.4125, 1.3175, 0.2475, 1.1525, 0.0825, 0.9875, 1.895, 0.8225, 1.73, 0.6575, 1.565, 0.4925, 1.4, 0.33, 1.235, 0.165, 1.07, 0, 0.905, 1.8125, 0.74, 1.6475, 0.575, 1.4825, 0.4125, 1.3175, 0.2475, 1.1525, 0.0825, 0.9875, 1.895, 0.8225, 1.73, 0.6575, 1.565, 0.4925, 1.4, 0.33, 1.235, 0.165, 1.07, 0, 0.905, 1.8125, 0.74, 1.6475, 0.575, 1.4825, 0.4125, 1.3175, 0.2475, 1.1525, 0.0825, 0.9875, 1.895, 0.8225, 1.73, 0.6575, 1.565, 0.4925, 1.4, 0.33, 1.235, 0.165, 1.07],
  "SoftwareVersions": "syngo_MR_D13D",
  "SpacingBetweenSlices": 1.9,
  "StationName": "AWP66014",
  "TaskName": "retrieval",
  "TotalReadoutTime": 0.0534753,
  "TxRefAmp": 231.179,
  "WipMemBlock": "32895795-7bc3-490d-b943-7d7bfed085b4||Sequence: vd13d/master r/0735857; Nov 19 2014 09:21:40 by eja",
  "dcmmeta_affine": [
    [-1.8965400457382202, 0.0033100908622145653, -0.0057747745886445045, 109.56961822509766],
    [0.004043571185320616, 1.8798788785934448, -0.2513497769832611, -96.25145721435547],
    [-0.005275729577988386, 0.2509043514728546, 1.883292317390442, -78.2239761352539],
    [0.0, 0.0, 0.0, 1.0]
],
  "dcmmeta_reorient_transform": [
    [0.0, -1.0, 0.0, 115.0],
    [1.0, 0.0, 0.0, 0.0],
    [0.0, 0.0, 1.0, 0.0],
    [0.0, 0.0, 0.0, 1.0]
],
  "dcmmeta_shape": [116, 116, 72, 289],
  "dcmmeta_slice_dim": 2,
  "dcmmeta_version": 0.6,
  "global": {
    "const": {
      "AcquisitionMatrix": [116, 0, 0, 116],
      "AngioFlag": "N",
      "BitsAllocated": 16,
      "BitsStored": 16,
      "BodyPartExamined": "HEAD",
      "Columns": 1044,
      "EchoNumbers": 1,
      "EchoTime": 30.0,
      "EchoTrainLength": 50,
      "FlipAngle": 81.0,
      "HighBit": 15,
      "ImageOrientationPatient": [0.99999385806919, -0.0021320647152, -0.0027817483631, 0.00174532065235, 0.99120884757815, -0.1322950276413],
      "ImagePositionPatient": [-991.48075447176, -990.32218372924, 69.497592091386],
      "ImageType": [
        "ORIGINAL",
        "PRIMARY",
        "M",
        "MB",
        "ND",
        "MOSAIC"
],
      "ImagedNucleus": "1H",
      "ImagingFrequency": 123.260559,
      "InPlanePhaseEncodingDirection": "COL",
      "LargestImagePixelValue": 65535,
      "MRAcquisitionType": "2D",
      "MagneticFieldStrength": 3.0,
      "Manufacturer": "SIEMENS",
      "ManufacturerModelName": "Prisma",
      "Modality": "MR",
      "NumberOfAverages": 1.0,
      "NumberOfPhaseEncodingSteps": 101,
      "PercentPhaseFieldOfView": 100.0,
      "PercentSampling": 100.0,
      "PerformedProcedureStepStartTime": "113142.676000",
      "PhotometricInterpretation": "MONOCHROME2",
      "PixelBandwidth": 1435.0,
      "PixelRepresentation": 0,
      "PixelSpacing": [1.8965517282486, 1.8965517282486],
      "ProtocolName": "mbep2d_bold_MB3_test2",
      "RepetitionTime": 2000.0,
      "Rows": 1044,
      "SAR": 0.0650100454805,
      "SamplesPerPixel": 1,
      "ScanOptions": [
        "PFP",
        "FS"
],
      "ScanningSequence": "EP",
      "SequenceName": "epfid2d1_116",
      "SequenceVariant": [
        "SK",
        "SS"
],
      "SeriesDescription": "mbep2d_bold_MB3_test2",
      "SeriesNumber": 7,
      "SeriesTime": "115436.158000",
      "SliceLocation": -65.136086387842,
      "SliceThickness": 1.8999999761581,
      "SmallestImagePixelValue": 0,
      "SoftwareVersions": "syngo MR D13D",
      "SpacingBetweenSlices": 1.8999999790156,
      "SpecificCharacterSet": "ISO_IR 100",
      "StudyID": "1",
      "StudyTime": "113142.607000",
      "TimeOfLastCalibration": ["123723.000000", "123723.000000"],
      "TransmitCoilName": "Body",
      "VariableFlipAngleFlag": "N",
      "WindowCenterWidthExplanation": "Algo1",
      "dBdt": 0.0},
    "slices": {}
  },
  "time": {
    "samples": {
      "AcquisitionNumber": [1, 2, 3, 4, 5, 6, 7, 8, 9, 10, 11, 12, 13, 14, 15, 16, 17, 18, 19, 20, 21, 22, 23, 24, 25, 26, 27, 28, 29, 30, 31, 32, 33, 34, 35, 36, 37, 38, 39, 40, 41, 42, 43, 44, 45, 46, 47, 48, 49, 50, 51, 52, 53, 54, 55, 56, 57, 58, 59, 60, 61, 62, 63, 64, 65, 66, 67, 68, 69, 70, 71, 72, 73, 74, 75, 76, 77, 78, 79, 80, 81, 82, 83, 84, 85, 86, 87, 88, 89, 90, 91, 92, 93, 94, 95, 96, 97, 98, 99, 100, 101, 102, 103, 104, 105, 106, 107, 108, 109, 110, 111, 112, 113, 114, 115, 116, 117, 118, 119, 120, 121, 122, 123, 124, 125, 126, 127, 128, 129, 130, 131, 132, 133, 134, 135, 136, 137, 138, 139, 140, 141, 142, 143, 144, 145, 146, 147, 148, 149, 150, 151, 152, 153, 154, 155, 156, 157, 158, 159, 160, 161, 162, 163, 164, 165, 166, 167, 168, 169, 170, 171, 172, 173, 174, 175, 176, 177, 178, 179, 180, 181, 182, 183, 184, 185, 186, 187, 188, 189, 190, 191, 192, 193, 194, 195, 196, 197, 198, 199, 200, 201, 202, 203, 204, 205, 206, 207, 208, 209, 210, 211, 212, 213, 214, 215, 216, 217, 218, 219, 220, 221, 222, 223, 224, 225, 226, 227, 228, 229, 230, 231, 232, 233, 234, 235, 236, 237, 238, 239, 240, 241, 242, 243, 244, 245, 246, 247, 248, 249, 250, 251, 252, 253, 254, 255, 256, 257, 258, 259, 260, 261, 262, 263, 264, 265, 266, 267, 268, 269, 270, 271, 272, 273, 274, 275, 276, 277, 278, 279, 280, 281, 282, 283, 284, 285, 286, 287, 288, 289],
      "AcquisitionTime": ["115419.312500", "115421.312500", "115423.312500", "115425.312500", "115427.312500", "115429.312500", "115431.312500", "115433.312500", "115435.312500", "115437.312500", "115439.312500", "115441.312500", "115443.312500", "115445.312500", "115447.312500", "115449.312500", "115451.312500", "115453.312500", "115455.312500", "115457.312500", "115459.312500", "115501.312500", "115503.312500", "115505.312500", "115507.312500", "115509.312500", "115511.312500", "115513.312500", "115515.312500", "115517.312500", "115519.312500", "115521.312500", "115523.312500", "115525.312500", "115527.312500", "115529.312500", "115531.312500", "115533.312500", "115535.312500", "115537.312500", "115539.312500", "115541.312500", "115543.312500", "115545.312500", "115547.312500", "115549.312500", "115551.312500", "115553.312500", "115555.312500", "115557.312500", "115559.312500", "115601.312500", "115603.312500", "115605.312500", "115607.312500", "115609.312500", "115611.312500", "115613.312500", "115615.312500", "115617.312500", "115619.312500", "115621.312500", "115623.312500", "115625.312500", "115627.312500", "115629.312500", "115631.312500", "115633.312500", "115635.312500", "115637.312500", "115639.312500", "115641.312500", "115643.312500", "115645.312500", "115647.312500", "115649.312500", "115651.312500", "115653.312500", "115655.312500", "115657.312500", "115659.312500", "115701.312500", "115703.312500", "115705.312500", "115707.312500", "115709.312500", "115711.312500", "115713.312500", "115715.312500", "115717.312500", "115719.312500", "115721.312500", "115723.312500", "115725.312500", "115727.312500", "115729.312500", "115731.312500", "115733.312500", "115735.312500", "115737.312500", "115739.312500", "115741.312500", "115743.312500", "115745.312500", "115747.312500", "115749.312500", "115751.312500", "115753.312500", "115755.312500", "115757.312500", "115759.312500", "115801.312500", "115803.312500", "115805.312500", "115807.312500", "115809.312500", "115811.312500", "115813.312500", "115815.312500", "115817.312500", "115819.312500", "115821.312500", "115823.312500", "115825.312500", "115827.312500", "115829.312500", "115831.312500", "115833.312500", "115835.312500", "115837.312500", "115839.312500", "115841.312500", "115843.312500", "115845.312500", "115847.312500", "115849.312500", "115851.312500", "115853.312500", "115855.312500", "115857.312500", "115859.312500", "115901.312500", "115903.312500", "115905.312500", "115907.312500", "115909.312500", "115911.312500", "115913.312500", "115915.312500", "115917.312500", "115919.312500", "115921.312500", "115923.312500", "115925.312500", "115927.312500", "115929.312500", "115931.312500", "115933.312500", "115935.312500", "115937.312500", "115939.312500", "115941.312500", "115943.312500", "115945.312500", "115947.312500", "115949.312500", "115951.312500", "115953.312500", "115955.312500", "115957.312500", "115959.312500", "120001.312500", "120003.312500", "120005.312500", "120007.312500", "120009.312500", "120011.312500", "120013.312500", "120015.312500", "120017.312500", "120019.312500", "120021.312500", "120023.312500", "120025.312500", "120027.312500", "120029.312500", "120031.312500", "120033.312500", "120035.312500", "120037.312500", "120039.312500", "120041.312500", "120043.312500", "120045.312500", "120047.312500", "120049.312500", "120051.312500", "120053.312500", "120055.312500", "120057.312500", "120059.312500", "120101.312500", "120103.312500", "120105.312500", "120107.312500", "120109.312500", "120111.312500", "120113.312500", "120115.312500", "120117.312500", "120119.312500", "120121.312500", "120123.312500", "120125.312500", "120127.312500", "120129.312500", "120131.312500", "120133.312500", "120135.312500", "120137.312500", "120139.312500", "120141.312500", "120143.312500", "120145.312500", "120147.312500", "120149.312500", "120151.312500", "120153.312500", "120155.312500", "120157.312500", "120159.312500", "120201.312500", "120203.312500", "120205.312500", "120207.312500", "120209.312500", "120211.312500", "120213.312500", "120215.312500", "120217.312500", "120219.312500", "120221.312500", "120223.312500", "120225.312500", "120227.312500", "120229.315000", "120231.315000", "120233.315000", "120235.315000", "120237.315000", "120239.315000", "120241.315000", "120243.315000", "120245.315000", "120247.315000", "120249.315000", "120251.315000", "120253.315000", "120255.315000", "120257.315000", "120259.315000", "120301.315000", "120303.315000", "120305.315000", "120307.315000", "120309.315000", "120311.315000", "120313.315000", "120315.315000", "120317.315000", "120319.315000", "120321.315000", "120323.315000", "120325.315000", "120327.315000", "120329.315000", "120331.315000", "120333.315000", "120335.315000", "120337.315000", "120339.315000", "120341.315000", "120343.315000", "120345.315000", "120347.315000", "120349.315000", "120351.315000", "120353.315000", "120355.315000"],
      "ContentTime": ["115436.164000", "115437.157000", "115438.158000", "115438.162000", "115439.157000", "115440.159000", "115440.163000", "115441.158000", "115442.158000", "115443.159000", "115444.158000", "115445.659000", "115447.658000", "115449.659000", "115451.660000", "115453.658000", "115455.659000", "115457.660000", "115459.662000", "115501.660000", "115503.661000", "115505.659000", "115507.659000", "115509.657000", "115511.658000", "115513.659000", "115515.659000", "115517.659000", "115519.659000", "115521.659000", "115523.659000", "115525.659000", "115527.658000", "115529.658000", "115531.657000", "115533.659000", "115535.659000", "115537.659000", "115539.658000", "115541.659000", "115543.659000", "115545.658000", "115547.658000", "115549.659000", "115551.659000", "115553.659000", "115555.659000", "115557.659000", "115559.659000", "115601.659000", "115603.658000", "115605.659000", "115607.659000", "115609.659000", "115611.659000", "115613.659000", "115615.659000", "115617.659000", "115619.658000", "115621.658000", "115623.659000", "115625.659000", "115627.659000", "115629.659000", "115631.659000", "115633.659000", "115635.659000", "115637.658000", "115639.658000", "115641.659000", "115643.659000", "115645.659000", "115647.659000", "115649.659000", "115651.660000", "115653.659000", "115655.658000", "115657.659000", "115659.659000", "115701.659000", "115703.659000", "115705.658000", "115707.659000", "115709.659000", "115711.659000", "115713.658000", "115715.659000", "115717.659000", "115719.659000", "115721.659000", "115723.659000", "115725.659000", "115727.659000", "115729.658000", "115731.658000", "115733.659000", "115735.659000", "115737.658000", "115739.659000", "115741.659000", "115743.659000", "115745.659000", "115747.658000", "115749.658000", "115751.659000", "115753.658000", "115755.659000", "115757.659000", "115759.659000", "115801.659000", "115803.659000", "115805.659000", "115807.659000", "115809.659000", "115811.659000", "115813.659000", "115815.659000", "115817.659000", "115819.659000", "115821.659000", "115823.658000", "115825.660000", "115827.659000", "115829.659000", "115831.658000", "115833.659000", "115835.659000", "115837.660000", "115839.658000", "115841.658000", "115843.659000", "115845.659000", "115847.659000", "115849.659000", "115851.659000", "115853.659000", "115855.659000", "115857.658000", "115859.658000", "115901.660000", "115903.658000", "115905.659000", "115907.659000", "115909.660000", "115911.659000", "115913.659000", "115915.657000", "115917.658000", "115919.659000", "115921.659000", "115923.659000", "115925.659000", "115927.659000", "115929.659000", "115931.659000", "115933.658000", "115935.659000", "115937.659000", "115939.659000", "115941.659000", "115943.659000", "115945.659000", "115947.659000", "115949.658000", "115951.658000", "115953.658000", "115955.659000", "115957.659000", "115959.658000", "120001.659000", "120003.658000", "120005.659000", "120007.658000", "120009.658000", "120011.659000", "120013.659000", "120015.659000", "120017.659000", "120019.659000", "120021.659000", "120023.659000", "120025.658000", "120027.659000", "120029.659000", "120031.660000", "120033.660000", "120035.659000", "120037.657000", "120039.658000", "120041.659000", "120043.656000", "120045.658000", "120047.659000", "120049.659000", "120051.658000", "120053.659000", "120055.659000", "120057.659000", "120059.658000", "120101.658000", "120103.659000", "120105.659000", "120107.659000", "120109.660000", "120111.659000", "120113.660000", "120115.659000", "120117.658000", "120119.659000", "120121.659000", "120123.659000", "120125.659000", "120127.659000", "120129.659000", "120131.659000", "120133.659000", "120135.658000", "120137.659000", "120139.659000", "120141.659000", "120143.659000", "120145.659000", "120147.659000", "120149.659000", "120151.659000", "120153.658000", "120155.660000", "120157.659000", "120159.659000", "120201.659000", "120203.659000", "120205.668000", "120207.659000", "120209.658000", "120211.657000", "120213.659000", "120215.658000", "120217.659000", "120219.659000", "120221.659000", "120223.659000", "120225.659000", "120227.658000", "120229.659000", "120231.659000", "120233.659000", "120235.659000", "120237.659000", "120239.659000", "120241.659000", "120243.660000", "120245.658000", "120247.660000", "120249.659000", "120251.659000", "120253.659000", "120255.659000", "120257.659000", "120259.659000", "120301.658000", "120303.658000", "120305.659000", "120307.659000", "120309.659000", "120311.660000", "120313.660000", "120315.659000", "120317.659000", "120319.658000", "120321.658000", "120323.659000", "120325.658000", "120327.659000", "120329.659000", "120331.659000", "120333.659000", "120335.660000", "120337.658000", "120339.659000", "120341.659000", "120343.659000", "120345.659000", "120347.659000", "120349.660000", "120351.659000", "120353.659000", "120355.659000", "120357.660000", "120359.324000"],
      "InstanceCreationTime": ["115436.164000", "115437.157000", "115438.158000", "115438.162000", "115439.157000", "115440.159000", "115440.163000", "115441.158000", "115442.158000", "115443.159000", "115444.158000", "115445.659000", "115447.658000", "115449.659000", "115451.660000", "115453.658000", "115455.659000", "115457.660000", "115459.662000", "115501.660000", "115503.661000", "115505.659000", "115507.659000", "115509.657000", "115511.658000", "115513.659000", "115515.659000", "115517.659000", "115519.659000", "115521.659000", "115523.659000", "115525.659000", "115527.658000", "115529.658000", "115531.657000", "115533.659000", "115535.659000", "115537.659000", "115539.658000", "115541.659000", "115543.659000", "115545.658000", "115547.658000", "115549.659000", "115551.659000", "115553.659000", "115555.659000", "115557.659000", "115559.659000", "115601.659000", "115603.658000", "115605.659000", "115607.659000", "115609.659000", "115611.659000", "115613.659000", "115615.659000", "115617.659000", "115619.658000", "115621.658000", "115623.659000", "115625.659000", "115627.659000", "115629.659000", "115631.659000", "115633.659000", "115635.659000", "115637.658000", "115639.658000", "115641.659000", "115643.659000", "115645.659000", "115647.659000", "115649.659000", "115651.660000", "115653.659000", "115655.658000", "115657.659000", "115659.659000", "115701.659000", "115703.659000", "115705.658000", "115707.659000", "115709.659000", "115711.659000", "115713.658000", "115715.659000", "115717.659000", "115719.659000", "115721.659000", "115723.659000", "115725.659000", "115727.659000", "115729.658000", "115731.658000", "115733.659000", "115735.659000", "115737.658000", "115739.659000", "115741.659000", "115743.659000", "115745.659000", "115747.658000", "115749.658000", "115751.659000", "115753.658000", "115755.659000", "115757.659000", "115759.659000", "115801.659000", "115803.659000", "115805.659000", "115807.659000", "115809.659000", "115811.659000", "115813.659000", "115815.659000", "115817.659000", "115819.659000", "115821.659000", "115823.658000", "115825.660000", "115827.659000", "115829.659000", "115831.658000", "115833.659000", "115835.659000", "115837.660000", "115839.658000", "115841.658000", "115843.659000", "115845.659000", "115847.659000", "115849.659000", "115851.659000", "115853.659000", "115855.659000", "115857.658000", "115859.658000", "115901.660000", "115903.658000", "115905.659000", "115907.659000", "115909.660000", "115911.659000", "115913.659000", "115915.657000", "115917.658000", "115919.659000", "115921.659000", "115923.659000", "115925.659000", "115927.659000", "115929.659000", "115931.659000", "115933.658000", "115935.659000", "115937.659000", "115939.659000", "115941.659000", "115943.659000", "115945.659000", "115947.659000", "115949.658000", "115951.658000", "115953.658000", "115955.659000", "115957.659000", "115959.658000", "120001.659000", "120003.658000", "120005.659000", "120007.658000", "120009.658000", "120011.659000", "120013.659000", "120015.659000", "120017.659000", "120019.659000", "120021.659000", "120023.659000", "120025.658000", "120027.659000", "120029.659000", "120031.660000", "120033.660000", "120035.659000", "120037.657000", "120039.658000", "120041.659000", "120043.656000", "120045.658000", "120047.659000", "120049.659000", "120051.658000", "120053.659000", "120055.659000", "120057.659000", "120059.658000", "120101.658000", "120103.659000", "120105.659000", "120107.659000", "120109.660000", "120111.659000", "120113.660000", "120115.659000", "120117.658000", "120119.659000", "120121.659000", "120123.659000", "120125.659000", "120127.659000", "120129.659000", "120131.659000", "120133.659000", "120135.658000", "120137.659000", "120139.659000", "120141.659000", "120143.659000", "120145.659000", "120147.659000", "120149.659000", "120151.659000", "120153.658000", "120155.660000", "120157.659000", "120159.659000", "120201.659000", "120203.659000", "120205.668000", "120207.659000", "120209.658000", "120211.657000", "120213.659000", "120215.658000", "120217.659000", "120219.659000", "120221.659000", "120223.659000", "120225.659000", "120227.658000", "120229.659000", "120231.659000", "120233.659000", "120235.659000", "120237.659000", "120239.659000", "120241.659000", "120243.660000", "120245.658000", "120247.660000", "120249.659000", "120251.659000", "120253.659000", "120255.659000", "120257.659000", "120259.659000", "120301.658000", "120303.658000", "120305.659000", "120307.659000", "120309.659000", "120311.660000", "120313.660000", "120315.659000", "120317.659000", "120319.658000", "120321.658000", "120323.659000", "120325.658000", "120327.659000", "120329.659000", "120331.659000", "120333.659000", "120335.660000", "120337.658000", "120339.659000", "120341.659000", "120343.659000", "120345.659000", "120347.659000", "120349.660000", "120351.659000", "120353.659000", "120355.659000", "120357.660000", "120359.324000"],
      "InstanceNumber": [1, 2, 3, 4, 5, 6, 7, 8, 9, 10, 11, 12, 13, 14, 15, 16, 17, 18, 19, 20, 21, 22, 23, 24, 25, 26, 27, 28, 29, 30, 31, 32, 33, 34, 35, 36, 37, 38, 39, 40, 41, 42, 43, 44, 45, 46, 47, 48, 49, 50, 51, 52, 53, 54, 55, 56, 57, 58, 59, 60, 61, 62, 63, 64, 65, 66, 67, 68, 69, 70, 71, 72, 73, 74, 75, 76, 77, 78, 79, 80, 81, 82, 83, 84, 85, 86, 87, 88, 89, 90, 91, 92, 93, 94, 95, 96, 97, 98, 99, 100, 101, 102, 103, 104, 105, 106, 107, 108, 109, 110, 111, 112, 113, 114, 115, 116, 117, 118, 119, 120, 121, 122, 123, 124, 125, 126, 127, 128, 129, 130, 131, 132, 133, 134, 135, 136, 137, 138, 139, 140, 141, 142, 143, 144, 145, 146, 147, 148, 149, 150, 151, 152, 153, 154, 155, 156, 157, 158, 159, 160, 161, 162, 163, 164, 165, 166, 167, 168, 169, 170, 171, 172, 173, 174, 175, 176, 177, 178, 179, 180, 181, 182, 183, 184, 185, 186, 187, 188, 189, 190, 191, 192, 193, 194, 195, 196, 197, 198, 199, 200, 201, 202, 203, 204, 205, 206, 207, 208, 209, 210, 211, 212, 213, 214, 215, 216, 217, 218, 219, 220, 221, 222, 223, 224, 225, 226, 227, 228, 229, 230, 231, 232, 233, 234, 235, 236, 237, 238, 239, 240, 241, 242, 243, 244, 245, 246, 247, 248, 249, 250, 251, 252, 253, 254, 255, 256, 257, 258, 259, 260, 261, 262, 263, 264, 265, 266, 267, 268, 269, 270, 271, 272, 273, 274, 275, 276, 277, 278, 279, 280, 281, 282, 283, 284, 285, 286, 287, 288, 289],
      "WindowCenter": [18576.0, 18572.0, 18574.0, 18542.0, 18522.0, 18496.0, 18514.0, 18541.0, 18565.0, 18529.0, 18487.0, 18501.0, 18505.0, 18504.0, 18509.0, 18517.0, 18516.0, 18503.0, 18527.0, 18521.0, 18511.0, 18515.0, 18513.0, 18498.0, 18522.0, 18526.0, 18515.0, 18513.0, 18496.0, 18478.0, 18512.0, 18567.0, 18520.0, 18491.0, 18463.0, 18456.0, 18484.0, 18510.0, 18514.0, 18506.0, 18487.0, 18509.0, 18506.0, 18528.0, 18513.0, 18522.0, 18515.0, 18541.0, 18528.0, 18502.0, 18510.0, 18519.0, 18509.0, 18501.0, 18483.0, 18426.0, 18427.0, 18433.0, 18447.0, 18463.0, 18496.0, 18501.0, 18508.0, 18512.0, 18560.0, 18570.0, 18537.0, 18509.0, 18485.0, 18529.0, 18558.0, 18540.0, 18520.0, 18508.0, 18521.0, 18543.0, 18542.0, 18517.0, 18516.0, 18504.0, 18518.0, 18527.0, 18519.0, 18493.0, 18512.0, 18532.0, 18561.0, 18550.0, 18525.0, 18518.0, 18541.0, 18538.0, 18560.0, 18543.0, 18517.0, 18521.0, 18515.0, 18531.0, 18548.0, 18554.0, 18543.0, 18517.0, 18543.0, 18537.0, 18561.0, 18563.0, 18501.0, 18465.0, 18445.0, 18408.0, 18363.0, 18364.0, 18369.0, 18374.0, 18408.0, 18444.0, 18498.0, 18529.0, 18527.0, 18499.0, 18489.0, 18467.0, 18466.0, 18490.0, 18504.0, 18529.0, 18537.0, 18537.0, 18541.0, 18545.0, 18537.0, 18505.0, 18500.0, 18505.0, 18462.0, 18487.0, 18471.0, 18445.0, 18441.0, 18482.0, 18485.0, 18517.0, 18491.0, 18491.0, 18508.0, 18511.0, 18495.0, 18470.0, 18486.0, 18499.0, 18525.0, 18436.0, 18579.0, 18520.0, 18515.0, 18556.0, 18576.0, 18557.0, 18513.0, 18534.0, 18534.0, 18551.0, 18544.0, 18510.0, 18509.0, 18537.0, 18557.0, 18564.0, 18557.0, 18561.0, 18549.0, 18570.0, 18571.0, 18562.0, 18552.0, 18541.0, 18539.0, 18578.0, 18567.0, 18566.0, 18571.0, 18558.0, 18550.0, 18554.0, 18545.0, 18554.0, 18533.0, 18531.0, 18546.0, 18575.0, 18586.0, 18571.0, 18551.0, 18527.0, 18539.0, 18571.0, 18578.0, 18567.0, 18532.0, 18546.0, 18552.0, 18569.0, 18574.0, 18571.0, 18572.0, 18571.0, 18573.0, 18576.0, 18576.0, 18550.0, 18555.0, 18574.0, 18583.0, 18567.0, 18542.0, 18558.0, 18558.0, 18566.0, 18556.0, 18561.0, 18560.0, 18555.0, 18552.0, 18535.0, 18521.0, 18552.0, 18562.0, 18560.0, 18560.0, 18549.0, 18564.0, 18576.0, 18586.0, 18574.0, 18555.0, 18541.0, 18566.0, 18585.0, 18583.0, 18587.0, 18588.0, 18578.0, 18559.0, 18577.0, 18552.0, 18558.0, 18549.0, 18544.0, 18587.0, 18586.0, 18566.0, 18547.0, 18560.0, 18552.0, 18581.0, 18572.0, 18584.0, 18558.0, 18575.0, 18548.0, 18561.0, 18595.0, 18566.0, 18523.0, 18510.0, 18481.0, 18386.0, 18362.0, 18370.0, 18379.0, 18406.0, 18426.0, 18462.0, 18509.0, 18531.0, 18540.0, 18514.0, 18526.0, 18560.0, 18592.0, 18597.0, 18577.0, 18565.0, 18530.0, 18559.0, 18592.0, 18581.0, 18555.0, 18547.0],
      "WindowWidth": [48565.0, 48573.0, 48620.0, 48552.0, 48490.0, 48426.0, 48476.0, 48544.0, 48558.0, 48507.0, 48456.0, 48441.0, 48480.0, 48468.0, 48460.0, 48466.0, 48499.0, 48515.0, 48533.0, 48517.0, 48451.0, 48425.0, 48400.0, 48403.0, 48431.0, 48518.0, 48513.0, 48426.0, 48352.0, 48367.0, 48572.0, 48606.0, 48527.0, 48375.0, 48331.0, 48340.0, 48444.0, 48511.0, 48476.0, 48422.0, 48397.0, 48424.0, 48459.0, 48435.0, 48414.0, 48455.0, 48488.0, 48528.0, 48532.0, 48443.0, 48448.0, 48502.0, 48494.0, 48417.0, 48248.0, 48077.0, 48065.0, 48128.0, 48197.0, 48330.0, 48413.0, 48439.0, 48446.0, 48524.0, 48696.0, 48667.0, 48512.0, 48325.0, 48324.0, 48449.0, 48514.0, 48476.0, 48391.0, 48349.0, 48457.0, 48541.0, 48478.0, 48389.0, 48329.0, 48346.0, 48417.0, 48456.0, 48390.0, 48350.0, 48412.0, 48500.0, 48554.0, 48463.0, 48433.0, 48453.0, 48506.0, 48504.0, 48504.0, 48527.0, 48487.0, 48443.0, 48369.0, 48381.0, 48523.0, 48536.0, 48467.0, 48428.0, 48470.0, 48518.0, 48543.0, 48540.0, 48388.0, 48247.0, 48077.0, 47797.0, 47721.0, 47696.0, 47661.0, 47728.0, 47862.0, 48042.0, 48296.0, 48375.0, 48336.0, 48270.0, 48204.0, 48191.0, 48225.0, 48325.0, 48455.0, 48495.0, 48489.0, 48455.0, 48482.0, 48530.0, 48438.0, 48345.0, 48342.0, 48362.0, 48188.0, 48320.0, 48246.0, 48122.0, 48121.0, 48210.0, 48295.0, 48255.0, 48260.0, 48261.0, 48286.0, 48263.0, 48204.0, 48223.0, 48245.0, 48328.0, 48370.0, 48062.0, 48550.0, 48355.0, 48438.0, 48550.0, 48550.0, 48488.0, 48374.0, 48351.0, 48412.0, 48425.0, 48372.0, 48290.0, 48279.0, 48428.0, 48525.0, 48517.0, 48526.0, 48506.0, 48546.0, 48584.0, 48571.0, 48518.0, 48475.0, 48469.0, 48505.0, 48541.0, 48557.0, 48581.0, 48595.0, 48503.0, 48486.0, 48418.0, 48469.0, 48451.0, 48415.0, 48401.0, 48449.0, 48540.0, 48618.0, 48548.0, 48427.0, 48351.0, 48374.0, 48512.0, 48551.0, 48496.0, 48416.0, 48425.0, 48441.0, 48464.0, 48500.0, 48511.0, 48489.0, 48453.0, 48466.0, 48489.0, 48429.0, 48413.0, 48441.0, 48502.0, 48531.0, 48482.0, 48429.0, 48427.0, 48478.0, 48545.0, 48576.0, 48517.0, 48454.0, 48452.0, 48451.0, 48404.0, 48385.0, 48451.0, 48505.0, 48504.0, 48457.0, 48427.0, 48508.0, 48576.0, 48593.0, 48513.0, 48440.0, 48421.0, 48463.0, 48497.0, 48471.0, 48484.0, 48508.0, 48480.0, 48516.0, 48502.0, 48497.0, 48465.0, 48435.0, 48423.0, 48485.0, 48508.0, 48446.0, 48398.0, 48444.0, 48487.0, 48496.0, 48500.0, 48554.0, 48551.0, 48489.0, 48485.0, 48530.0, 48526.0, 48517.0, 48404.0, 48286.0, 48016.0, 47781.0, 47654.0, 47673.0, 47715.0, 47830.0, 47953.0, 48134.0, 48285.0, 48371.0, 48366.0, 48362.0, 48396.0, 48517.0, 48594.0, 48620.0, 48571.0, 48503.0, 48434.0, 48512.0, 48558.0, 48574.0, 48509.0, 48444.0]
    },
    "slices": {}
  }
}