{
  "AcquisitionMatrixPE": 116,
  "AcquisitionNumber": 1,
  "AcquisitionTime": "12:04:53.255000",
  "BandwidthPerPixelPhaseEncode": 18.539,
  "BaseResolution": 116,
  "BodyPartExamined": "HEAD",
  "ConsistencyInfo": "N4_VD13D_LATEST_20130810",
  "ConversionSoftware": "dcm2niix",
  "ConversionSoftwareVersion": "v1.0.20190410  (JP2:OpenJPEG) (JP-LS:CharLS) GCC5.5.0",
  "DerivedVendorReportedEchoSpacing": 0.000930006,
  "DeviceSerialNumber": "66014",
  "DwellTime": 3e-06,
  "EchoTime": 0.03,
  "EchoTrainLength": 50,
  "EffectiveEchoSpacing": 0.000465003,
  "FlipAngle": 81,
  "ImageComments": "Unaliased_MB3_PE4",
  "ImageOrientationPatientDICOM": [0.999994, -0.00213206, -0.00278175, 0.00174532, 0.991209, -0.132295],
  "ImageType": [
    "ORIGINAL",
    "PRIMARY",
    "M",
    "MB",
    "ND",
    "MOSAIC"
],
  "ImagingFrequency": 123.261,
  "InPlanePhaseEncodingDirectionDICOM": "COL",
  "InstitutionAddress": "Yiheyuan_Road_5_Beijing_Haidian_CN_100871",
  "InstitutionName": "Peking_University",
  "InstitutionalDepartmentName": "Department",
  "MRAcquisitionType": "2D",
  "MagneticFieldStrength": 3,
  "Manufacturer": "Siemens",
  "ManufacturersModelName": "Prisma",
  "Modality": "MR",
  "MultibandAccelerationFactor": 3,
  "ParallelReductionFactorInPlane": 2,
  "PartialFourier": 0.875,
  "PatientPosition": "HFS",
  "PercentPhaseFOV": 100,
  "PhaseEncodingDirection": "j-",
  "PhaseEncodingSteps": 101,
  "PhaseResolution": 1,
  "PixelBandwidth": 1435,
  "ProcedureStepDescription": "Research_Projects_64CH",
  "ProtocolName": "mbep2d_bold_MB3_test3",
  "PulseSequenceDetails": "%CustomerSeq%_cmrr_mbep2d_bold",
  "ReceiveCoilActiveElements": "HC1-7",
  "ReceiveCoilName": "HeadNeck_64",
  "ReconMatrixPE": 116,
  "RefLinesPE": 44,
  "RepetitionTime": 2,
  "SAR": 0.06501,
  "ScanOptions": "PFP_FS",
  "ScanningSequence": "EP",
  "SequenceName": "epfid2d1_116",
  "SequenceVariant": "SK_SS",
  "SeriesDescription": "mbep2d_bold_MB3_test3",
  "SeriesNumber": 8,
  "ShimSetting": [-3456, -2092, -1943, 414, -12, -298, -40, 9],
  "SliceThickness": 1.9,
  "SliceTiming": [0, 0.905, 1.8125, 0.74, 1.6475, 0.575, 1.4825, 0.41, 1.3175, 0.2475, 1.1525, 0.0825, 0.9875, 1.895, 0.8225, 1.73, 0.6575, 1.565, 0.4925, 1.4, 0.3275, 1.235, 0.165, 1.07, 0, 0.905, 1.8125, 0.74, 1.6475, 0.575, 1.4825, 0.41, 1.3175, 0.2475, 1.1525, 0.0825, 0.9875, 1.895, 0.8225, 1.73, 0.6575, 1.565, 0.4925, 1.4, 0.3275, 1.235, 0.165, 1.07, 0, 0.905, 1.8125, 0.74, 1.6475, 0.575, 1.4825, 0.41, 1.3175, 0.2475, 1.1525, 0.0825, 0.9875, 1.895, 0.8225, 1.73, 0.6575, 1.565, 0.4925, 1.4, 0.3275, 1.235, 0.165, 1.07],
  "SoftwareVersions": "syngo_MR_D13D",
  "SpacingBetweenSlices": 1.9,
  "StationName": "AWP66014",
  "TaskName": "retrieval",
  "TotalReadoutTime": 0.0534753,
  "TxRefAmp": 231.179,
  "WipMemBlock": "e12428a1-1157-490e-9b96-3fb0c92967cf||Sequence: vd13d/master r/0735857; Nov 19 2014 09:21:40 by eja",
  "dcmmeta_affine": [
    [-1.8965400457382202, 0.0033100908622145653, -0.0057747745886445045, 109.56961822509766],
    [0.004043571185320616, 1.8798788785934448, -0.2513497769832611, -96.25145721435547],
    [-0.005275729577988386, 0.2509043514728546, 1.883292317390442, -78.2239761352539],
    [0.0, 0.0, 0.0, 1.0]
],
  "dcmmeta_reorient_transform": [
    [0.0, -1.0, 0.0, 115.0],
    [1.0, 0.0, 0.0, 0.0],
    [0.0, 0.0, 1.0, 0.0],
    [0.0, 0.0, 0.0, 1.0]
],
  "dcmmeta_shape": [116, 116, 72, 289],
  "dcmmeta_slice_dim": 2,
  "dcmmeta_version": 0.6,
  "global": {
    "const": {
      "AcquisitionMatrix": [116, 0, 0, 116],
      "AngioFlag": "N",
      "BitsAllocated": 16,
      "BitsStored": 16,
      "BodyPartExamined": "HEAD",
      "Columns": 1044,
      "EchoNumbers": 1,
      "EchoTime": 30.0,
      "EchoTrainLength": 50,
      "FlipAngle": 81.0,
      "HighBit": 15,
      "ImageOrientationPatient": [0.99999385806919, -0.0021320647152, -0.0027817483631, 0.00174532065235, 0.99120884757815, -0.1322950276413],
      "ImagePositionPatient": [-991.48075447176, -990.32218372924, 69.497592091386],
      "ImageType": [
        "ORIGINAL",
        "PRIMARY",
        "M",
        "MB",
        "ND",
        "MOSAIC"
],
      "ImagedNucleus": "1H",
      "ImagingFrequency": 123.26056,
      "InPlanePhaseEncodingDirection": "COL",
      "LargestImagePixelValue": 65535,
      "MRAcquisitionType": "2D",
      "MagneticFieldStrength": 3.0,
      "Manufacturer": "SIEMENS",
      "ManufacturerModelName": "Prisma",
      "Modality": "MR",
      "NumberOfAverages": 1.0,
      "NumberOfPhaseEncodingSteps": 101,
      "PercentPhaseFieldOfView": 100.0,
      "PercentSampling": 100.0,
      "PerformedProcedureStepStartTime": "113142.676000",
      "PhotometricInterpretation": "MONOCHROME2",
      "PixelBandwidth": 1435.0,
      "PixelRepresentation": 0,
      "PixelSpacing": [1.8965517282486, 1.8965517282486],
      "ProtocolName": "mbep2d_bold_MB3_test3",
      "RepetitionTime": 2000.0,
      "Rows": 1044,
      "SAR": 0.0650100454805,
      "SamplesPerPixel": 1,
      "ScanOptions": [
        "PFP",
        "FS"
],
      "ScanningSequence": "EP",
      "SequenceName": "epfid2d1_116",
      "SequenceVariant": [
        "SK",
        "SS"
],
      "SeriesDescription": "mbep2d_bold_MB3_test3",
      "SeriesNumber": 8,
      "SeriesTime": "120509.495000",
      "SliceLocation": -65.136086387842,
      "SliceThickness": 1.8999999761581,
      "SmallestImagePixelValue": 0,
      "SoftwareVersions": "syngo MR D13D",
      "SpacingBetweenSlices": 1.8999999790156,
      "SpecificCharacterSet": "ISO_IR 100",
      "StudyID": "1",
      "StudyTime": "113142.607000",
      "TimeOfLastCalibration": ["123723.000000", "123723.000000"],
      "TransmitCoilName": "Body",
      "VariableFlipAngleFlag": "N",
      "WindowCenterWidthExplanation": "Algo1",
      "dBdt": 0.0},
    "slices": {}
  },
  "time": {
    "samples": {
      "AcquisitionNumber": [1, 2, 3, 4, 5, 6, 7, 8, 9, 10, 11, 12, 13, 14, 15, 16, 17, 18, 19, 20, 21, 22, 23, 24, 25, 26, 27, 28, 29, 30, 31, 32, 33, 34, 35, 36, 37, 38, 39, 40, 41, 42, 43, 44, 45, 46, 47, 48, 49, 50, 51, 52, 53, 54, 55, 56, 57, 58, 59, 60, 61, 62, 63, 64, 65, 66, 67, 68, 69, 70, 71, 72, 73, 74, 75, 76, 77, 78, 79, 80, 81, 82, 83, 84, 85, 86, 87, 88, 89, 90, 91, 92, 93, 94, 95, 96, 97, 98, 99, 100, 101, 102, 103, 104, 105, 106, 107, 108, 109, 110, 111, 112, 113, 114, 115, 116, 117, 118, 119, 120, 121, 122, 123, 124, 125, 126, 127, 128, 129, 130, 131, 132, 133, 134, 135, 136, 137, 138, 139, 140, 141, 142, 143, 144, 145, 146, 147, 148, 149, 150, 151, 152, 153, 154, 155, 156, 157, 158, 159, 160, 161, 162, 163, 164, 165, 166, 167, 168, 169, 170, 171, 172, 173, 174, 175, 176, 177, 178, 179, 180, 181, 182, 183, 184, 185, 186, 187, 188, 189, 190, 191, 192, 193, 194, 195, 196, 197, 198, 199, 200, 201, 202, 203, 204, 205, 206, 207, 208, 209, 210, 211, 212, 213, 214, 215, 216, 217, 218, 219, 220, 221, 222, 223, 224, 225, 226, 227, 228, 229, 230, 231, 232, 233, 234, 235, 236, 237, 238, 239, 240, 241, 242, 243, 244, 245, 246, 247, 248, 249, 250, 251, 252, 253, 254, 255, 256, 257, 258, 259, 260, 261, 262, 263, 264, 265, 266, 267, 268, 269, 270, 271, 272, 273, 274, 275, 276, 277, 278, 279, 280, 281, 282, 283, 284, 285, 286, 287, 288, 289],
      "AcquisitionTime": ["120453.255000", "120455.255000", "120457.255000", "120459.255000", "120501.255000", "120503.255000", "120505.255000", "120507.255000", "120509.255000", "120511.255000", "120513.255000", "120515.255000", "120517.255000", "120519.255000", "120521.255000", "120523.255000", "120525.255000", "120527.255000", "120529.255000", "120531.255000", "120533.255000", "120535.255000", "120537.255000", "120539.255000", "120541.255000", "120543.255000", "120545.255000", "120547.255000", "120549.255000", "120551.255000", "120553.255000", "120555.255000", "120557.255000", "120559.255000", "120601.255000", "120603.255000", "120605.255000", "120607.255000", "120609.255000", "120611.255000", "120613.255000", "120615.255000", "120617.255000", "120619.255000", "120621.255000", "120623.255000", "120625.255000", "120627.255000", "120629.255000", "120631.255000", "120633.255000", "120635.255000", "120637.255000", "120639.255000", "120641.255000", "120643.255000", "120645.255000", "120647.255000", "120649.255000", "120651.255000", "120653.255000", "120655.255000", "120657.255000", "120659.255000", "120701.255000", "120703.255000", "120705.255000", "120707.255000", "120709.255000", "120711.255000", "120713.255000", "120715.255000", "120717.255000", "120719.255000", "120721.255000", "120723.255000", "120725.255000", "120727.255000", "120729.255000", "120731.255000", "120733.255000", "120735.255000", "120737.255000", "120739.255000", "120741.255000", "120743.255000", "120745.255000", "120747.255000", "120749.255000", "120751.255000", "120753.255000", "120755.255000", "120757.255000", "120759.255000", "120801.255000", "120803.255000", "120805.255000", "120807.255000", "120809.255000", "120811.255000", "120813.255000", "120815.255000", "120817.255000", "120819.255000", "120821.255000", "120823.255000", "120825.255000", "120827.255000", "120829.255000", "120831.255000", "120833.255000", "120835.255000", "120837.255000", "120839.255000", "120841.255000", "120843.255000", "120845.255000", "120847.255000", "120849.255000", "120851.255000", "120853.255000", "120855.255000", "120857.255000", "120859.255000", "120901.255000", "120903.255000", "120905.255000", "120907.255000", "120909.255000", "120911.255000", "120913.255000", "120915.255000", "120917.255000", "120919.255000", "120921.255000", "120923.255000", "120925.255000", "120927.255000", "120929.255000", "120931.255000", "120933.255000", "120935.255000", "120937.255000", "120939.255000", "120941.255000", "120943.255000", "120945.255000", "120947.255000", "120949.255000", "120951.255000", "120953.255000", "120955.255000", "120957.255000", "120959.255000", "121001.255000", "121003.255000", "121005.255000", "121007.255000", "121009.255000", "121011.255000", "121013.255000", "121015.255000", "121017.255000", "121019.255000", "121021.255000", "121023.255000", "121025.255000", "121027.255000", "121029.255000", "121031.255000", "121033.255000", "121035.255000", "121037.255000", "121039.255000", "121041.255000", "121043.255000", "121045.255000", "121047.255000", "121049.255000", "121051.255000", "121053.255000", "121055.255000", "121057.255000", "121059.255000", "121101.255000", "121103.255000", "121105.255000", "121107.255000", "121109.255000", "121111.255000", "121113.255000", "121115.255000", "121117.255000", "121119.255000", "121121.255000", "121123.255000", "121125.255000", "121127.255000", "121129.255000", "121131.255000", "121133.255000", "121135.255000", "121137.255000", "121139.255000", "121141.255000", "121143.255000", "121145.255000", "121147.255000", "121149.255000", "121151.255000", "121153.255000", "121155.255000", "121157.255000", "121159.255000", "121201.255000", "121203.255000", "121205.255000", "121207.255000", "121209.255000", "121211.255000", "121213.255000", "121215.255000", "121217.255000", "121219.255000", "121221.255000", "121223.255000", "121225.255000", "121227.255000", "121229.255000", "121231.255000", "121233.255000", "121235.255000", "121237.255000", "121239.255000", "121241.255000", "121243.255000", "121245.255000", "121247.255000", "121249.255000", "121251.255000", "121253.255000", "121255.255000", "121257.255000", "121259.255000", "121301.255000", "121303.255000", "121305.255000", "121307.257500", "121309.257500", "121311.257500", "121313.257500", "121315.257500", "121317.257500", "121319.257500", "121321.257500", "121323.257500", "121325.257500", "121327.257500", "121329.257500", "121331.257500", "121333.257500", "121335.257500", "121337.257500", "121339.257500", "121341.257500", "121343.257500", "121345.257500", "121347.257500", "121349.257500", "121351.257500", "121353.257500", "121355.257500", "121357.257500", "121359.257500", "121401.257500", "121403.257500", "121405.257500", "121407.257500", "121409.257500", "121411.257500", "121413.257500", "121415.257500", "121417.257500", "121419.257500", "121421.257500", "121423.257500", "121425.257500", "121427.257500", "121429.257500"],
      "ContentTime": ["120509.501000", "120510.495000", "120511.494000", "120511.498000", "120512.494000", "120513.493000", "120513.498000", "120514.494000", "120515.494000", "120516.494000", "120517.493000", "120518.994000", "120520.993000", "120522.993000", "120524.993000", "120526.995000", "120528.994000", "120530.995000", "120532.994000", "120534.992000", "120536.993000", "120539.014000", "120540.994000", "120542.995000", "120544.995000", "120546.995000", "120548.993000", "120550.995000", "120552.994000", "120554.992000", "120556.994000", "120558.994000", "120600.995000", "120602.995000", "120604.995000", "120606.994000", "120608.994000", "120610.993000", "120612.993000", "120614.993000", "120617.015000", "120618.995000", "120620.995000", "120622.995000", "120624.995000", "120626.994000", "120628.994000", "120630.994000", "120632.994000", "120634.995000", "120636.995000", "120638.995000", "120640.995000", "120642.994000", "120644.994000", "120646.994000", "120648.994000", "120650.994000", "120652.996000", "120654.995000", "120656.995000", "120658.995000", "120700.994000", "120702.997000", "120704.994000", "120706.994000", "120708.994000", "120710.995000", "120712.996000", "120714.995000", "120716.995000", "120718.994000", "120720.994000", "120722.994000", "120724.994000", "120726.996000", "120728.996000", "120730.995000", "120732.995000", "120734.995000", "120736.994000", "120738.994000", "120740.994000", "120742.994000", "120744.995000", "120746.995000", "120748.995000", "120750.995000", "120752.994000", "120754.994000", "120756.994000", "120758.994000", "120800.995000", "120802.995000", "120804.995000", "120806.995000", "120808.995000", "120810.994000", "120812.994000", "120815.004000", "120816.995000", "120818.994000", "120820.995000", "120822.994000", "120824.995000", "120826.995000", "120828.994000", "120830.994000", "120832.994000", "120834.994000", "120836.995000", "120838.995000", "120840.995000", "120842.995000", "120844.995000", "120846.994000", "120848.994000", "120850.994000", "120852.994000", "120854.995000", "120856.994000", "120858.995000", "120900.995000", "120902.994000", "120904.994000", "120906.994000", "120908.993000", "120910.994000", "120912.995000", "120914.994000", "120916.995000", "120918.995000", "120920.994000", "120922.994000", "120924.994000", "120926.994000", "120928.994000", "120930.995000", "120932.995000", "120934.995000", "120936.995000", "120938.994000", "120940.994000", "120942.994000", "120944.994000", "120946.995000", "120948.995000", "120950.995000", "120952.995000", "120954.995000", "120956.995000", "120958.994000", "121000.994000", "121002.994000", "121004.995000", "121006.995000", "121008.995000", "121010.995000", "121012.995000", "121014.994000", "121016.994000", "121018.994000", "121020.994000", "121022.995000", "121024.995000", "121026.995000", "121028.995000", "121030.994000", "121032.994000", "121034.994000", "121036.994000", "121038.994000", "121040.995000", "121042.995000", "121044.995000", "121046.995000", "121048.994000", "121050.994000", "121052.994000", "121054.994000", "121056.995000", "121058.995000", "121100.995000", "121102.995000", "121104.995000", "121106.994000", "121108.994000", "121110.995000", "121112.994000", "121114.995000", "121116.995000", "121118.995000", "121120.995000", "121122.994000", "121124.994000", "121126.995000", "121128.994000", "121130.994000", "121132.995000", "121134.996000", "121136.995000", "121138.995000", "121140.994000", "121142.994000", "121144.994000", "121146.994000", "121148.994000", "121150.995000", "121152.995000", "121154.995000", "121156.995000", "121158.994000", "121200.995000", "121202.994000", "121204.994000", "121206.994000", "121208.995000", "121210.995000", "121212.996000", "121214.995000", "121216.994000", "121218.994000", "121220.994000", "121222.994000", "121224.995000", "121226.995000", "121228.996000", "121230.996000", "121232.994000", "121234.994000", "121236.994000", "121238.994000", "121240.994000", "121242.995000", "121244.995000", "121246.995000", "121248.995000", "121250.995000", "121252.995000", "121254.994000", "121256.994000", "121258.994000", "121300.995000", "121302.995000", "121304.995000", "121306.995000", "121308.994000", "121310.994000", "121312.994000", "121314.994000", "121316.995000", "121318.993000", "121320.995000", "121322.995000", "121324.994000", "121326.994000", "121329.994000", "121330.993000", "121332.994000", "121334.995000", "121336.995000", "121338.995000", "121340.995000", "121342.994000", "121345.006000", "121346.994000", "121348.994000", "121350.994000", "121352.995000", "121354.995000", "121356.995000", "121358.995000", "121400.994000", "121402.994000", "121404.994000", "121406.994000", "121408.995000", "121410.995000", "121412.995000", "121414.995000", "121416.995000", "121418.994000", "121420.994000", "121422.994000", "121424.994000", "121426.995000", "121428.995000", "121430.995000", "121432.911000"],
      "InstanceCreationTime": ["120509.501000", "120510.495000", "120511.494000", "120511.498000", "120512.494000", "120513.493000", "120513.498000", "120514.494000", "120515.494000", "120516.494000", "120517.493000", "120518.994000", "120520.993000", "120522.993000", "120524.993000", "120526.995000", "120528.994000", "120530.995000", "120532.994000", "120534.992000", "120536.993000", "120539.014000", "120540.994000", "120542.995000", "120544.995000", "120546.995000", "120548.993000", "120550.995000", "120552.994000", "120554.992000", "120556.994000", "120558.994000", "120600.995000", "120602.995000", "120604.995000", "120606.994000", "120608.994000", "120610.993000", "120612.993000", "120614.993000", "120617.015000", "120618.995000", "120620.995000", "120622.995000", "120624.995000", "120626.994000", "120628.994000", "120630.994000", "120632.994000", "120634.995000", "120636.995000", "120638.995000", "120640.995000", "120642.994000", "120644.994000", "120646.994000", "120648.994000", "120650.994000", "120652.996000", "120654.995000", "120656.995000", "120658.995000", "120700.994000", "120702.997000", "120704.994000", "120706.994000", "120708.994000", "120710.995000", "120712.996000", "120714.995000", "120716.995000", "120718.994000", "120720.994000", "120722.994000", "120724.994000", "120726.996000", "120728.996000", "120730.995000", "120732.995000", "120734.995000", "120736.994000", "120738.994000", "120740.994000", "120742.994000", "120744.995000", "120746.995000", "120748.995000", "120750.995000", "120752.994000", "120754.994000", "120756.994000", "120758.994000", "120800.995000", "120802.995000", "120804.995000", "120806.995000", "120808.995000", "120810.994000", "120812.994000", "120815.004000", "120816.995000", "120818.994000", "120820.995000", "120822.994000", "120824.995000", "120826.995000", "120828.994000", "120830.994000", "120832.994000", "120834.994000", "120836.995000", "120838.995000", "120840.995000", "120842.995000", "120844.995000", "120846.994000", "120848.994000", "120850.994000", "120852.994000", "120854.995000", "120856.994000", "120858.995000", "120900.995000", "120902.994000", "120904.994000", "120906.994000", "120908.993000", "120910.994000", "120912.995000", "120914.994000", "120916.995000", "120918.995000", "120920.994000", "120922.994000", "120924.994000", "120926.994000", "120928.994000", "120930.995000", "120932.995000", "120934.995000", "120936.995000", "120938.994000", "120940.994000", "120942.994000", "120944.994000", "120946.995000", "120948.995000", "120950.995000", "120952.995000", "120954.995000", "120956.995000", "120958.994000", "121000.994000", "121002.994000", "121004.995000", "121006.995000", "121008.995000", "121010.995000", "121012.995000", "121014.994000", "121016.994000", "121018.994000", "121020.994000", "121022.995000", "121024.995000", "121026.995000", "121028.995000", "121030.994000", "121032.994000", "121034.994000", "121036.994000", "121038.994000", "121040.995000", "121042.995000", "121044.995000", "121046.995000", "121048.994000", "121050.994000", "121052.994000", "121054.994000", "121056.995000", "121058.995000", "121100.995000", "121102.995000", "121104.995000", "121106.994000", "121108.994000", "121110.995000", "121112.994000", "121114.995000", "121116.995000", "121118.995000", "121120.995000", "121122.994000", "121124.994000", "121126.995000", "121128.994000", "121130.994000", "121132.995000", "121134.996000", "121136.995000", "121138.995000", "121140.994000", "121142.994000", "121144.994000", "121146.994000", "121148.994000", "121150.995000", "121152.995000", "121154.995000", "121156.995000", "121158.994000", "121200.995000", "121202.994000", "121204.994000", "121206.994000", "121208.995000", "121210.995000", "121212.996000", "121214.995000", "121216.994000", "121218.994000", "121220.994000", "121222.994000", "121224.995000", "121226.995000", "121228.996000", "121230.996000", "121232.994000", "121234.994000", "121236.994000", "121238.994000", "121240.994000", "121242.995000", "121244.995000", "121246.995000", "121248.995000", "121250.995000", "121252.995000", "121254.994000", "121256.994000", "121258.994000", "121300.995000", "121302.995000", "121304.995000", "121306.995000", "121308.994000", "121310.994000", "121312.994000", "121314.994000", "121316.995000", "121318.993000", "121320.995000", "121322.995000", "121324.994000", "121326.994000", "121329.994000", "121330.993000", "121332.994000", "121334.995000", "121336.995000", "121338.995000", "121340.995000", "121342.994000", "121345.006000", "121346.994000", "121348.994000", "121350.994000", "121352.995000", "121354.995000", "121356.995000", "121358.995000", "121400.994000", "121402.994000", "121404.994000", "121406.994000", "121408.995000", "121410.995000", "121412.995000", "121414.995000", "121416.995000", "121418.994000", "121420.994000", "121422.994000", "121424.994000", "121426.995000", "121428.995000", "121430.995000", "121432.911000"],
      "InstanceNumber": [1, 2, 3, 4, 5, 6, 7, 8, 9, 10, 11, 12, 13, 14, 15, 16, 17, 18, 19, 20, 21, 22, 23, 24, 25, 26, 27, 28, 29, 30, 31, 32, 33, 34, 35, 36, 37, 38, 39, 40, 41, 42, 43, 44, 45, 46, 47, 48, 49, 50, 51, 52, 53, 54, 55, 56, 57, 58, 59, 60, 61, 62, 63, 64, 65, 66, 67, 68, 69, 70, 71, 72, 73, 74, 75, 76, 77, 78, 79, 80, 81, 82, 83, 84, 85, 86, 87, 88, 89, 90, 91, 92, 93, 94, 95, 96, 97, 98, 99, 100, 101, 102, 103, 104, 105, 106, 107, 108, 109, 110, 111, 112, 113, 114, 115, 116, 117, 118, 119, 120, 121, 122, 123, 124, 125, 126, 127, 128, 129, 130, 131, 132, 133, 134, 135, 136, 137, 138, 139, 140, 141, 142, 143, 144, 145, 146, 147, 148, 149, 150, 151, 152, 153, 154, 155, 156, 157, 158, 159, 160, 161, 162, 163, 164, 165, 166, 167, 168, 169, 170, 171, 172, 173, 174, 175, 176, 177, 178, 179, 180, 181, 182, 183, 184, 185, 186, 187, 188, 189, 190, 191, 192, 193, 194, 195, 196, 197, 198, 199, 200, 201, 202, 203, 204, 205, 206, 207, 208, 209, 210, 211, 212, 213, 214, 215, 216, 217, 218, 219, 220, 221, 222, 223, 224, 225, 226, 227, 228, 229, 230, 231, 232, 233, 234, 235, 236, 237, 238, 239, 240, 241, 242, 243, 244, 245, 246, 247, 248, 249, 250, 251, 252, 253, 254, 255, 256, 257, 258, 259, 260, 261, 262, 263, 264, 265, 266, 267, 268, 269, 270, 271, 272, 273, 274, 275, 276, 277, 278, 279, 280, 281, 282, 283, 284, 285, 286, 287, 288, 289],
      "WindowCenter": [18582.0, 18585.0, 18627.0, 18594.0, 18583.0, 18591.0, 18602.0, 18605.0, 18614.0, 18610.0, 18622.0, 18628.0, 18594.0, 18593.0, 18589.0, 18607.0, 18609.0, 18595.0, 18563.0, 18562.0, 18556.0, 18600.0, 18615.0, 18581.0, 18547.0, 18538.0, 18573.0, 18611.0, 18590.0, 18584.0, 18575.0, 18611.0, 18626.0, 18606.0, 18575.0, 18558.0, 18572.0, 18571.0, 18609.0, 18599.0, 18588.0, 18580.0, 18578.0, 18577.0, 18580.0, 18582.0, 18572.0, 18562.0, 18577.0, 18562.0, 18594.0, 18602.0, 18574.0, 18573.0, 18573.0, 18601.0, 18588.0, 18552.0, 18532.0, 18561.0, 18601.0, 18617.0, 18581.0, 18556.0, 18555.0, 18572.0, 18594.0, 18597.0, 18595.0, 18597.0, 18559.0, 18550.0, 18541.0, 18484.0, 18447.0, 18464.0, 18466.0, 18463.0, 18509.0, 18557.0, 18593.0, 18567.0, 18559.0, 18563.0, 18573.0, 18592.0, 18596.0, 18582.0, 18571.0, 18580.0, 18590.0, 18594.0, 18584.0, 18611.0, 18604.0, 18627.0, 18626.0, 18606.0, 18610.0, 18687.0, 18671.0, 18665.0, 18622.0, 18589.0, 18605.0, 18635.0, 18649.0, 18639.0, 18617.0, 18609.0, 18636.0, 18631.0, 18651.0, 18639.0, 18630.0, 18633.0, 18601.0, 18618.0, 18638.0, 18659.0, 18637.0, 18614.0, 18607.0, 18621.0, 18649.0, 18645.0, 18633.0, 18582.0, 18585.0, 18633.0, 18624.0, 18632.0, 18629.0, 18641.0, 18635.0, 18656.0, 18583.0, 18534.0, 18529.0, 18466.0, 18467.0, 18478.0, 18487.0, 18486.0, 18529.0, 18565.0, 18578.0, 18583.0, 18565.0, 18583.0, 18619.0, 18618.0, 18597.0, 18567.0, 18565.0, 18597.0, 18588.0, 18585.0, 18574.0, 18609.0, 18621.0, 18611.0, 18590.0, 18584.0, 18612.0, 18635.0, 18634.0, 18625.0, 18638.0, 18645.0, 18614.0, 18594.0, 18536.0, 18491.0, 18469.0, 18458.0, 18464.0, 18448.0, 18415.0, 18440.0, 18447.0, 18500.0, 18560.0, 18557.0, 18538.0, 18542.0, 18610.0, 18551.0, 18641.0, 18625.0, 18610.0, 18547.0, 18566.0, 18567.0, 18626.0, 18636.0, 18623.0, 18602.0, 18639.0, 18654.0, 18621.0, 18608.0, 18629.0, 18655.0, 18647.0, 18600.0, 18580.0, 18641.0, 18659.0, 18654.0, 18603.0, 18547.0, 18579.0, 18565.0, 18581.0, 18607.0, 18616.0, 18618.0, 18616.0, 18629.0, 18634.0, 18619.0, 18627.0, 18634.0, 18637.0, 18632.0, 18638.0, 18618.0, 18634.0, 18608.0, 18620.0, 18644.0, 18661.0, 18655.0, 18629.0, 18613.0, 18648.0, 18670.0, 18636.0, 18637.0, 18608.0, 18609.0, 18624.0, 18654.0, 18640.0, 18652.0, 18626.0, 18612.0, 18632.0, 18658.0, 18637.0, 18629.0, 18635.0, 18651.0, 18676.0, 18677.0, 18619.0, 18594.0, 18596.0, 18622.0, 18628.0, 18648.0, 18626.0, 18633.0, 18657.0, 18638.0, 18648.0, 18641.0, 18647.0, 18628.0, 18630.0, 18625.0, 18653.0, 18661.0, 18647.0, 18644.0, 18636.0, 18627.0, 18627.0, 18634.0, 18643.0, 18656.0, 18649.0, 18645.0, 18633.0, 18653.0, 18637.0, 18630.0, 18614.0],
      "WindowWidth": [48202.0, 48309.0, 48334.0, 48313.0, 48306.0, 48324.0, 48392.0, 48442.0, 48461.0, 48521.0, 48551.0, 48505.0, 48412.0, 48364.0, 48447.0, 48530.0, 48505.0, 48410.0, 48331.0, 48321.0, 48402.0, 48501.0, 48461.0, 48365.0, 48284.0, 48282.0, 48376.0, 48388.0, 48385.0, 48357.0, 48389.0, 48448.0, 48497.0, 48458.0, 48398.0, 48340.0, 48290.0, 48362.0, 48410.0, 48379.0, 48334.0, 48319.0, 48344.0, 48369.0, 48368.0, 48381.0, 48374.0, 48369.0, 48355.0, 48370.0, 48451.0, 48467.0, 48388.0, 48363.0, 48437.0, 48443.0, 48398.0, 48327.0, 48287.0, 48368.0, 48551.0, 48538.0, 48428.0, 48328.0, 48327.0, 48401.0, 48487.0, 48489.0, 48352.0, 48436.0, 48362.0, 48298.0, 48126.0, 47904.0, 47844.0, 47877.0, 47866.0, 47940.0, 48092.0, 48302.0, 48339.0, 48297.0, 48243.0, 48259.0, 48351.0, 48400.0, 48366.0, 48296.0, 48301.0, 48367.0, 48399.0, 48391.0, 48418.0, 48412.0, 48454.0, 48458.0, 48446.0, 48387.0, 48450.0, 48616.0, 48619.0, 48565.0, 48393.0, 48250.0, 48335.0, 48498.0, 48518.0, 48476.0, 48403.0, 48387.0, 48442.0, 48498.0, 48497.0, 48502.0, 48485.0, 48438.0, 48383.0, 48430.0, 48527.0, 48550.0, 48465.0, 48353.0, 48339.0, 48444.0, 48533.0, 48505.0, 48388.0, 48309.0, 48397.0, 48476.0, 48505.0, 48462.0, 48497.0, 48601.0, 48610.0, 48597.0, 48402.0, 48273.0, 48078.0, 47904.0, 47893.0, 47937.0, 47967.0, 48052.0, 48178.0, 48297.0, 48365.0, 48357.0, 48369.0, 48441.0, 48538.0, 48537.0, 48439.0, 48346.0, 48344.0, 48365.0, 48409.0, 48358.0, 48314.0, 48384.0, 48427.0, 48383.0, 48297.0, 48283.0, 48411.0, 48487.0, 48461.0, 48431.0, 48476.0, 48540.0, 48338.0, 48347.0, 48113.0, 47990.0, 47869.0, 47767.0, 47795.0, 47780.0, 47745.0, 47802.0, 47868.0, 47977.0, 48222.0, 48231.0, 48134.0, 48164.0, 48340.0, 48231.0, 48409.0, 48350.0, 48204.0, 48093.0, 48107.0, 48254.0, 48364.0, 48395.0, 48324.0, 48349.0, 48459.0, 48479.0, 48384.0, 48410.0, 48414.0, 48464.0, 48387.0, 48223.0, 48236.0, 48504.0, 48586.0, 48437.0, 48271.0, 48106.0, 48198.0, 48189.0, 48271.0, 48347.0, 48413.0, 48416.0, 48403.0, 48435.0, 48438.0, 48431.0, 48435.0, 48462.0, 48467.0, 48486.0, 48489.0, 48476.0, 48427.0, 48400.0, 48455.0, 48519.0, 48552.0, 48489.0, 48388.0, 48345.0, 48462.0, 48547.0, 48489.0, 48405.0, 48364.0, 48378.0, 48472.0, 48490.0, 48515.0, 48450.0, 48399.0, 48354.0, 48465.0, 48504.0, 48489.0, 48423.0, 48454.0, 48575.0, 48590.0, 48468.0, 48344.0, 48245.0, 48261.0, 48339.0, 48402.0, 48388.0, 48387.0, 48380.0, 48432.0, 48470.0, 48429.0, 48434.0, 48473.0, 48426.0, 48379.0, 48412.0, 48479.0, 48506.0, 48473.0, 48423.0, 48420.0, 48450.0, 48438.0, 48466.0, 48494.0, 48466.0, 48475.0, 48450.0, 48444.0, 48505.0, 48492.0, 48402.0, 48345.0]
    },
    "slices": {}
  }
}