{
  "AcquisitionMatrixPE": 116,
  "AcquisitionNumber": 1,
  "AcquisitionTime": "12:22:17.260000",
  "BandwidthPerPixelPhaseEncode": 18.539,
  "BaseResolution": 116,
  "BodyPartExamined": "HEAD",
  "ConsistencyInfo": "N4_VD13D_LATEST_20130810",
  "ConversionSoftware": "dcm2niix",
  "ConversionSoftwareVersion": "v1.0.20190410  (JP2:OpenJPEG) (JP-LS:CharLS) GCC5.5.0",
  "DerivedVendorReportedEchoSpacing": 0.000930006,
  "DeviceSerialNumber": "66014",
  "DwellTime": 3e-06,
  "EchoTime": 0.03,
  "EchoTrainLength": 50,
  "EffectiveEchoSpacing": 0.000465003,
  "FlipAngle": 81,
  "ImageComments": "Unaliased_MB3_PE4",
  "ImageOrientationPatientDICOM": [0.999994, -0.00213206, -0.00278175, 0.00174532, 0.991209, -0.132295],
  "ImageType": [
    "ORIGINAL",
    "PRIMARY",
    "M",
    "MB",
    "ND",
    "MOSAIC"
],
  "ImagingFrequency": 123.261,
  "InPlanePhaseEncodingDirectionDICOM": "COL",
  "InstitutionAddress": "Yiheyuan_Road_5_Beijing_Haidian_CN_100871",
  "InstitutionName": "Peking_University",
  "InstitutionalDepartmentName": "Department",
  "MRAcquisitionType": "2D",
  "MagneticFieldStrength": 3,
  "Manufacturer": "Siemens",
  "ManufacturersModelName": "Prisma",
  "Modality": "MR",
  "MultibandAccelerationFactor": 3,
  "ParallelReductionFactorInPlane": 2,
  "PartialFourier": 0.875,
  "PatientPosition": "HFS",
  "PercentPhaseFOV": 100,
  "PhaseEncodingDirection": "j-",
  "PhaseEncodingSteps": 101,
  "PhaseResolution": 1,
  "PixelBandwidth": 1435,
  "ProcedureStepDescription": "Research_Projects_64CH",
  "ProtocolName": "mbep2d_bold_MB3_loca2",
  "PulseSequenceDetails": "%CustomerSeq%_cmrr_mbep2d_bold",
  "ReceiveCoilActiveElements": "HC1-7",
  "ReceiveCoilName": "HeadNeck_64",
  "ReconMatrixPE": 116,
  "RefLinesPE": 44,
  "RepetitionTime": 2,
  "SAR": 0.0637966,
  "ScanOptions": "PFP_FS",
  "ScanningSequence": "EP",
  "SequenceName": "epfid2d1_116",
  "SequenceVariant": "SK_SS",
  "SeriesDescription": "mbep2d_bold_MB3_loca2",
  "SeriesNumber": 10,
  "ShimSetting": [-3456, -2092, -1943, 414, -12, -298, -40, 9],
  "SliceThickness": 1.9,
  "SliceTiming": [0, 0.9075, 1.815, 0.7425, 1.65, 0.5775, 1.485, 0.4125, 1.32, 0.2475, 1.155, 0.0825, 0.99, 1.8975, 0.825, 1.7325, 0.66, 1.5675, 0.495, 1.4025, 0.33, 1.2375, 0.165, 1.0725, 0, 0.9075, 1.815, 0.7425, 1.65, 0.5775, 1.485, 0.4125, 1.32, 0.2475, 1.155, 0.0825, 0.99, 1.8975, 0.825, 1.7325, 0.66, 1.5675, 0.495, 1.4025, 0.33, 1.2375, 0.165, 1.0725, 0, 0.9075, 1.815, 0.7425, 1.65, 0.5775, 1.485, 0.4125, 1.32, 0.2475, 1.155, 0.0825, 0.99, 1.8975, 0.825, 1.7325, 0.66, 1.5675, 0.495, 1.4025, 0.33, 1.2375, 0.165, 1.0725],
  "SoftwareVersions": "syngo_MR_D13D",
  "SpacingBetweenSlices": 1.9,
  "StationName": "AWP66014",
  "TaskName": "localizer",
  "TotalReadoutTime": 0.0534753,
  "TxRefAmp": 231.179,
  "WipMemBlock": "15c80d01-727e-43e0-8d81-4cc2333a979d||Sequence: vd13d/master r/0735857; Nov 19 2014 09:21:40 by eja",
  "dcmmeta_affine": [
    [-1.8965400457382202, 0.0033100908622145653, -0.0057747745886445045, 109.56961822509766],
    [0.004043571185320616, 1.8798788785934448, -0.2513497769832611, -96.25145721435547],
    [-0.005275729577988386, 0.2509043514728546, 1.883292317390442, -78.2239761352539],
    [0.0, 0.0, 0.0, 1.0]
],
  "dcmmeta_reorient_transform": [
    [0.0, -1.0, 0.0, 115.0],
    [1.0, 0.0, 0.0, 0.0],
    [0.0, 0.0, 1.0, 0.0],
    [0.0, 0.0, 0.0, 1.0]
],
  "dcmmeta_shape": [116, 116, 72, 164],
  "dcmmeta_slice_dim": 2,
  "dcmmeta_version": 0.6,
  "global": {
    "const": {
      "AcquisitionMatrix": [116, 0, 0, 116],
      "AngioFlag": "N",
      "BitsAllocated": 16,
      "BitsStored": 16,
      "BodyPartExamined": "HEAD",
      "Columns": 1044,
      "EchoNumbers": 1,
      "EchoTime": 30.0,
      "EchoTrainLength": 50,
      "FlipAngle": 81.0,
      "HighBit": 15,
      "ImageOrientationPatient": [0.99999385806919, -0.0021320647152, -0.0027817483631, 0.00174532065235, 0.99120884757815, -0.1322950276413],
      "ImagePositionPatient": [-991.48075447176, -990.32218372924, 69.497592091386],
      "ImageType": [
        "ORIGINAL",
        "PRIMARY",
        "M",
        "MB",
        "ND",
        "MOSAIC"
],
      "ImagedNucleus": "1H",
      "ImagingFrequency": 123.260561,
      "InPlanePhaseEncodingDirection": "COL",
      "LargestImagePixelValue": 65535,
      "MRAcquisitionType": "2D",
      "MagneticFieldStrength": 3.0,
      "Manufacturer": "SIEMENS",
      "ManufacturerModelName": "Prisma",
      "Modality": "MR",
      "NumberOfAverages": 1.0,
      "NumberOfPhaseEncodingSteps": 101,
      "PercentPhaseFieldOfView": 100.0,
      "PercentSampling": 100.0,
      "PerformedProcedureStepStartTime": "113142.676000",
      "PhotometricInterpretation": "MONOCHROME2",
      "PixelBandwidth": 1435.0,
      "PixelRepresentation": 0,
      "PixelSpacing": [1.8965517282486, 1.8965517282486],
      "ProtocolName": "mbep2d_bold_MB3_loca2",
      "RepetitionTime": 2000.0,
      "Rows": 1044,
      "SAR": 0.06379659189274,
      "SamplesPerPixel": 1,
      "ScanOptions": [
        "PFP",
        "FS"
],
      "ScanningSequence": "EP",
      "SequenceName": "epfid2d1_116",
      "SequenceVariant": [
        "SK",
        "SS"
],
      "SeriesDescription": "mbep2d_bold_MB3_loca2",
      "SeriesNumber": 10,
      "SeriesTime": "122234.332000",
      "SliceLocation": -65.136086387842,
      "SliceThickness": 1.8999999761581,
      "SmallestImagePixelValue": 0,
      "SoftwareVersions": "syngo MR D13D",
      "SpacingBetweenSlices": 1.8999999790156,
      "SpecificCharacterSet": "ISO_IR 100",
      "StudyID": "1",
      "StudyTime": "113142.607000",
      "TimeOfLastCalibration": ["123723.000000", "123723.000000"],
      "TransmitCoilName": "Body",
      "VariableFlipAngleFlag": "N",
      "WindowCenterWidthExplanation": "Algo1",
      "dBdt": 0.0},
    "slices": {}
  },
  "time": {
    "samples": {
      "AcquisitionNumber": [1, 2, 3, 4, 5, 6, 7, 8, 9, 10, 11, 12, 13, 14, 15, 16, 17, 18, 19, 20, 21, 22, 23, 24, 25, 26, 27, 28, 29, 30, 31, 32, 33, 34, 35, 36, 37, 38, 39, 40, 41, 42, 43, 44, 45, 46, 47, 48, 49, 50, 51, 52, 53, 54, 55, 56, 57, 58, 59, 60, 61, 62, 63, 64, 65, 66, 67, 68, 69, 70, 71, 72, 73, 74, 75, 76, 77, 78, 79, 80, 81, 82, 83, 84, 85, 86, 87, 88, 89, 90, 91, 92, 93, 94, 95, 96, 97, 98, 99, 100, 101, 102, 103, 104, 105, 106, 107, 108, 109, 110, 111, 112, 113, 114, 115, 116, 117, 118, 119, 120, 121, 122, 123, 124, 125, 126, 127, 128, 129, 130, 131, 132, 133, 134, 135, 136, 137, 138, 139, 140, 141, 142, 143, 144, 145, 146, 147, 148, 149, 150, 151, 152, 153, 154, 155, 156, 157, 158, 159, 160, 161, 162, 163, 164],
      "AcquisitionTime": ["122217.260000", "122219.260000", "122221.260000", "122223.260000", "122225.260000", "122227.260000", "122229.260000", "122231.260000", "122233.260000", "122235.260000", "122237.260000", "122239.260000", "122241.260000", "122243.260000", "122245.260000", "122247.260000", "122249.260000", "122251.260000", "122253.260000", "122255.260000", "122257.260000", "122259.260000", "122301.260000", "122303.260000", "122305.260000", "122307.260000", "122309.260000", "122311.260000", "122313.260000", "122315.260000", "122317.260000", "122319.260000", "122321.260000", "122323.260000", "122325.260000", "122327.260000", "122329.260000", "122331.260000", "122333.260000", "122335.260000", "122337.260000", "122339.260000", "122341.260000", "122343.260000", "122345.260000", "122347.260000", "122349.260000", "122351.260000", "122353.260000", "122355.260000", "122357.260000", "122359.260000", "122401.260000", "122403.260000", "122405.260000", "122407.260000", "122409.260000", "122411.260000", "122413.260000", "122415.260000", "122417.260000", "122419.260000", "122421.260000", "122423.260000", "122425.260000", "122427.260000", "122429.260000", "122431.260000", "122433.260000", "122435.260000", "122437.260000", "122439.260000", "122441.260000", "122443.260000", "122445.260000", "122447.260000", "122449.260000", "122451.260000", "122453.260000", "122455.260000", "122457.260000", "122459.260000", "122501.260000", "122503.260000", "122505.260000", "122507.260000", "122509.260000", "122511.260000", "122513.260000", "122515.260000", "122517.260000", "122519.260000", "122521.260000", "122523.260000", "122525.260000", "122527.260000", "122529.260000", "122531.260000", "122533.260000", "122535.260000", "122537.260000", "122539.260000", "122541.260000", "122543.260000", "122545.260000", "122547.260000", "122549.260000", "122551.260000", "122553.260000", "122555.260000", "122557.260000", "122559.260000", "122601.260000", "122603.260000", "122605.260000", "122607.260000", "122609.260000", "122611.260000", "122613.260000", "122615.260000", "122617.260000", "122619.260000", "122621.262500", "122623.262500", "122625.262500", "122627.262500", "122629.262500", "122631.262500", "122633.262500", "122635.262500", "122637.262500", "122639.262500", "122641.262500", "122643.262500", "122645.262500", "122647.262500", "122649.262500", "122651.262500", "122653.262500", "122655.262500", "122657.262500", "122659.262500", "122701.262500", "122703.262500", "122705.262500", "122707.262500", "122709.262500", "122711.262500", "122713.262500", "122715.262500", "122717.262500", "122719.262500", "122721.262500", "122723.262500", "122725.262500", "122727.262500", "122729.262500", "122731.262500", "122733.262500", "122735.262500", "122737.262500", "122739.262500", "122741.262500", "122743.262500"],
      "ContentTime": ["122234.338000", "122235.331000", "122235.335000", "122236.331000", "122237.332000", "122237.336000", "122238.331000", "122239.333000", "122240.332000", "122241.332000", "122242.331000", "122243.832000", "122245.832000", "122247.832000", "122249.831000", "122251.832000", "122253.833000", "122255.833000", "122257.833000", "122259.832000", "122301.832000", "122303.832000", "122305.831000", "122307.832000", "122309.832000", "122311.833000", "122313.833000", "122315.832000", "122317.832000", "122319.832000", "122321.832000", "122323.832000", "122325.832000", "122327.832000", "122329.833000", "122331.834000", "122333.832000", "122335.832000", "122337.832000", "122339.832000", "122341.832000", "122343.832000", "122345.830000", "122347.832000", "122349.833000", "122351.831000", "122353.831000", "122355.831000", "122357.831000", "122359.831000", "122401.831000", "122403.831000", "122405.831000", "122407.832000", "122409.831000", "122411.831000", "122413.831000", "122415.831000", "122417.831000", "122419.831000", "122421.832000", "122423.831000", "122425.831000", "122427.831000", "122429.832000", "122431.831000", "122433.831000", "122435.831000", "122437.831000", "122439.832000", "122441.833000", "122443.832000", "122445.832000", "122447.832000", "122449.832000", "122451.831000", "122453.832000", "122455.832000", "122457.833000", "122459.833000", "122501.832000", "122503.832000", "122505.833000", "122507.830000", "122509.832000", "122511.833000", "122513.833000", "122515.833000", "122517.833000", "122519.833000", "122521.832000", "122523.832000", "122525.832000", "122527.832000", "122529.833000", "122531.833000", "122533.834000", "122535.832000", "122537.832000", "122539.832000", "122541.833000", "122543.832000", "122545.832000", "122547.832000", "122549.833000", "122551.833000", "122553.832000", "122555.832000", "122557.832000", "122559.832000", "122601.839000", "122603.832000", "122605.833000", "122607.833000", "122609.833000", "122611.833000", "122613.832000", "122615.833000", "122617.832000", "122619.833000", "122621.832000", "122623.833000", "122625.833000", "122627.833000", "122629.832000", "122631.833000", "122633.832000", "122635.831000", "122637.832000", "122639.832000", "122641.833000", "122643.834000", "122645.830000", "122647.833000", "122649.832000", "122651.832000", "122653.832000", "122655.832000", "122657.832000", "122659.833000", "122701.833000", "122703.832000", "122705.832000", "122707.832000", "122709.831000", "122711.832000", "122713.832000", "122715.834000", "122717.833000", "122719.833000", "122721.832000", "122723.832000", "122725.832000", "122727.833000", "122729.832000", "122731.832000", "122733.833000", "122735.833000", "122737.833000", "122739.832000", "122741.832000", "122743.832000", "122745.832000", "122747.452000"],
      "InstanceCreationTime": ["122234.338000", "122235.331000", "122235.335000", "122236.331000", "122237.332000", "122237.336000", "122238.331000", "122239.333000", "122240.332000", "122241.332000", "122242.331000", "122243.832000", "122245.832000", "122247.832000", "122249.831000", "122251.832000", "122253.833000", "122255.833000", "122257.833000", "122259.832000", "122301.832000", "122303.832000", "122305.831000", "122307.832000", "122309.832000", "122311.833000", "122313.833000", "122315.832000", "122317.832000", "122319.832000", "122321.832000", "122323.832000", "122325.832000", "122327.832000", "122329.833000", "122331.834000", "122333.832000", "122335.832000", "122337.832000", "122339.832000", "122341.832000", "122343.832000", "122345.830000", "122347.832000", "122349.833000", "122351.831000", "122353.831000", "122355.831000", "122357.831000", "122359.831000", "122401.831000", "122403.831000", "122405.831000", "122407.832000", "122409.831000", "122411.831000", "122413.831000", "122415.831000", "122417.831000", "122419.831000", "122421.832000", "122423.831000", "122425.831000", "122427.831000", "122429.832000", "122431.831000", "122433.831000", "122435.831000", "122437.831000", "122439.832000", "122441.833000", "122443.832000", "122445.832000", "122447.832000", "122449.832000", "122451.831000", "122453.832000", "122455.832000", "122457.833000", "122459.833000", "122501.832000", "122503.832000", "122505.833000", "122507.830000", "122509.832000", "122511.833000", "122513.833000", "122515.833000", "122517.833000", "122519.833000", "122521.832000", "122523.832000", "122525.832000", "122527.832000", "122529.833000", "122531.833000", "122533.834000", "122535.832000", "122537.832000", "122539.832000", "122541.833000", "122543.832000", "122545.832000", "122547.832000", "122549.833000", "122551.833000", "122553.832000", "122555.832000", "122557.832000", "122559.832000", "122601.839000", "122603.832000", "122605.833000", "122607.833000", "122609.833000", "122611.833000", "122613.832000", "122615.833000", "122617.832000", "122619.833000", "122621.832000", "122623.833000", "122625.833000", "122627.833000", "122629.832000", "122631.833000", "122633.832000", "122635.831000", "122637.832000", "122639.832000", "122641.833000", "122643.834000", "122645.830000", "122647.833000", "122649.832000", "122651.832000", "122653.832000", "122655.832000", "122657.832000", "122659.833000", "122701.833000", "122703.832000", "122705.832000", "122707.832000", "122709.831000", "122711.832000", "122713.832000", "122715.834000", "122717.833000", "122719.833000", "122721.832000", "122723.832000", "122725.832000", "122727.833000", "122729.832000", "122731.832000", "122733.833000", "122735.833000", "122737.833000", "122739.832000", "122741.832000", "122743.832000", "122745.832000", "122747.452000"],
      "InstanceNumber": [1, 2, 3, 4, 5, 6, 7, 8, 9, 10, 11, 12, 13, 14, 15, 16, 17, 18, 19, 20, 21, 22, 23, 24, 25, 26, 27, 28, 29, 30, 31, 32, 33, 34, 35, 36, 37, 38, 39, 40, 41, 42, 43, 44, 45, 46, 47, 48, 49, 50, 51, 52, 53, 54, 55, 56, 57, 58, 59, 60, 61, 62, 63, 64, 65, 66, 67, 68, 69, 70, 71, 72, 73, 74, 75, 76, 77, 78, 79, 80, 81, 82, 83, 84, 85, 86, 87, 88, 89, 90, 91, 92, 93, 94, 95, 96, 97, 98, 99, 100, 101, 102, 103, 104, 105, 106, 107, 108, 109, 110, 111, 112, 113, 114, 115, 116, 117, 118, 119, 120, 121, 122, 123, 124, 125, 126, 127, 128, 129, 130, 131, 132, 133, 134, 135, 136, 137, 138, 139, 140, 141, 142, 143, 144, 145, 146, 147, 148, 149, 150, 151, 152, 153, 154, 155, 156, 157, 158, 159, 160, 161, 162, 163, 164],
      "WindowCenter": [18736.0, 18702.0, 18707.0, 18730.0, 18757.0, 18724.0, 18704.0, 18663.0, 18594.0, 18576.0, 18584.0, 18573.0, 18589.0, 18622.0, 18636.0, 18655.0, 18682.0, 18710.0, 18692.0, 18658.0, 18648.0, 18665.0, 18656.0, 18648.0, 18665.0, 18656.0, 18658.0, 18711.0, 18699.0, 18682.0, 18692.0, 18731.0, 18730.0, 18712.0, 18706.0, 18732.0, 18743.0, 18711.0, 18735.0, 18730.0, 18673.0, 18666.0, 18764.0, 18736.0, 18671.0, 18636.0, 18630.0, 18619.0, 18645.0, 18684.0, 18688.0, 18685.0, 18666.0, 18675.0, 18687.0, 18715.0, 18702.0, 18699.0, 18695.0, 18688.0, 18741.0, 18748.0, 18734.0, 18722.0, 18654.0, 18646.0, 18630.0, 18648.0, 18675.0, 18677.0, 18688.0, 18691.0, 18699.0, 18705.0, 18724.0, 18715.0, 18746.0, 18742.0, 18743.0, 18733.0, 18724.0, 18756.0, 18765.0, 18745.0, 18673.0, 18569.0, 18510.0, 18542.0, 18568.0, 18577.0, 18611.0, 18633.0, 18638.0, 18650.0, 18681.0, 18699.0, 18721.0, 18724.0, 18727.0, 18741.0, 18720.0, 18727.0, 18713.0, 18704.0, 18733.0, 18750.0, 18753.0, 18762.0, 18714.0, 18674.0, 18667.0, 18707.0, 18749.0, 18748.0, 18708.0, 18674.0, 18653.0, 18679.0, 18698.0, 18711.0, 18719.0, 18696.0, 18693.0, 18743.0, 18714.0, 18743.0, 18739.0, 18698.0, 18688.0, 18713.0, 18725.0, 18713.0, 18729.0, 18765.0, 18715.0, 18655.0, 18632.0, 18653.0, 18636.0, 18620.0, 18599.0, 18642.0, 18647.0, 18698.0, 18710.0, 18685.0, 18705.0, 18693.0, 18707.0, 18774.0, 18753.0, 18701.0, 18709.0, 18704.0, 18651.0, 18646.0, 18638.0, 18659.0, 18686.0, 18705.0, 18676.0, 18687.0, 18689.0, 18700.0],
      "WindowWidth": [48701.0, 48699.0, 48739.0, 48762.0, 48852.0, 48831.0, 48665.0, 48422.0, 48183.0, 48097.0, 48115.0, 48157.0, 48204.0, 48309.0, 48402.0, 48475.0, 48634.0, 48689.0, 48666.0, 48562.0, 48520.0, 48481.0, 48465.0, 48497.0, 48519.0, 48526.0, 48518.0, 48751.0, 48650.0, 48639.0, 48684.0, 48755.0, 48717.0, 48669.0, 48703.0, 48791.0, 48762.0, 48694.0, 48711.0, 48731.0, 48598.0, 48607.0, 48800.0, 48684.0, 48473.0, 48366.0, 48353.0, 48332.0, 48508.0, 48664.0, 48628.0, 48615.0, 48578.0, 48549.0, 48654.0, 48671.0, 48701.0, 48648.0, 48637.0, 48678.0, 48858.0, 48933.0, 48687.0, 48735.0, 48497.0, 48384.0, 48351.0, 48422.0, 48450.0, 48523.0, 48529.0, 48519.0, 48526.0, 48566.0, 48625.0, 48681.0, 48724.0, 48745.0, 48698.0, 48717.0, 48659.0, 48771.0, 48854.0, 48756.0, 48397.0, 48015.0, 47896.0, 47970.0, 48069.0, 48159.0, 48289.0, 48364.0, 48427.0, 48471.0, 48564.0, 48634.0, 48696.0, 48769.0, 48773.0, 48781.0, 48770.0, 48724.0, 48694.0, 48688.0, 48779.0, 48861.0, 48862.0, 48807.0, 48715.0, 48594.0, 48591.0, 48713.0, 48860.0, 48832.0, 48652.0, 48498.0, 48449.0, 48538.0, 48646.0, 48651.0, 48573.0, 48511.0, 48581.0, 48746.0, 48684.0, 48900.0, 48780.0, 48695.0, 48642.0, 48705.0, 48749.0, 48714.0, 48689.0, 48772.0, 48633.0, 48430.0, 48381.0, 48368.0, 48294.0, 48235.0, 48260.0, 48360.0, 48473.0, 48564.0, 48609.0, 48630.0, 48583.0, 48588.0, 48705.0, 48916.0, 48808.0, 48629.0, 48665.0, 48505.0, 48365.0, 48266.0, 48311.0, 48455.0, 48543.0, 48566.0, 48549.0, 48544.0, 48571.0, 48576.0]
    },
    "slices": {}
  }
}