{
  "AcquisitionMatrixPE": 116,
  "AcquisitionNumber": 1,
  "AcquisitionTime": "17:10:48.172500",
  "BandwidthPerPixelPhaseEncode": 18.539,
  "BaseResolution": 116,
  "BodyPartExamined": "HEAD",
  "ConsistencyInfo": "N4_VD13D_LATEST_20130810",
  "ConversionSoftware": "dcm2niix",
  "ConversionSoftwareVersion": "v1.0.20190410  (JP2:OpenJPEG) (JP-LS:CharLS) GCC5.5.0",
  "DerivedVendorReportedEchoSpacing": 0.000930006,
  "DeviceSerialNumber": "66014",
  "DwellTime": 3e-06,
  "EchoTime": 0.03,
  "EchoTrainLength": 50,
  "EffectiveEchoSpacing": 0.000465003,
  "FlipAngle": 81,
  "ImageComments": "Unaliased_MB3_PE4",
  "ImageOrientationPatientDICOM": [0.998997, -0.0408835, 0.0182875, 0.0436172, 0.980821, -0.189968],
  "ImageType": [
    "ORIGINAL",
    "PRIMARY",
    "M",
    "MB",
    "ND",
    "MOSAIC"
],
  "ImagingFrequency": 123.261,
  "InPlanePhaseEncodingDirectionDICOM": "COL",
  "InstitutionAddress": "Yiheyuan_Road_5_Beijing_Haidian_CN_100871",
  "InstitutionName": "Peking_University",
  "InstitutionalDepartmentName": "Department",
  "MRAcquisitionType": "2D",
  "MagneticFieldStrength": 3,
  "Manufacturer": "Siemens",
  "ManufacturersModelName": "Prisma",
  "Modality": "MR",
  "MultibandAccelerationFactor": 3,
  "ParallelReductionFactorInPlane": 2,
  "PartialFourier": 0.875,
  "PatientPosition": "HFS",
  "PercentPhaseFOV": 100,
  "PhaseEncodingDirection": "j-",
  "PhaseEncodingSteps": 101,
  "PhaseResolution": 1,
  "PixelBandwidth": 1435,
  "ProcedureStepDescription": "Research_Projects_64CH",
  "ProtocolName": "mbep2d_bold_MB3_learn4",
  "PulseSequenceDetails": "%CustomerSeq%_cmrr_mbep2d_bold",
  "ReceiveCoilActiveElements": "HC1-7",
  "ReceiveCoilName": "HeadNeck_64",
  "ReconMatrixPE": 116,
  "RefLinesPE": 44,
  "RepetitionTime": 2,
  "SAR": 0.0611812,
  "ScanOptions": "PFP_FS",
  "ScanningSequence": "EP",
  "SequenceName": "epfid2d1_116",
  "SequenceVariant": "SK_SS",
  "SeriesDescription": "mbep2d_bold_MB3_learn4",
  "SeriesNumber": 8,
  "ShimSetting": [-3452, -2073, -1989, 177, -14, -153, -141, -24],
  "SliceThickness": 1.9,
  "SliceTiming": [0, 0.9075, 1.815, 0.7425, 1.65, 0.5775, 1.485, 0.4125, 1.32, 0.2475, 1.155, 0.0825, 0.99, 1.8975, 0.825, 1.7325, 0.66, 1.5675, 0.495, 1.4025, 0.33, 1.2375, 0.165, 1.0725, 0, 0.9075, 1.815, 0.7425, 1.65, 0.5775, 1.485, 0.4125, 1.32, 0.2475, 1.155, 0.0825, 0.99, 1.8975, 0.825, 1.7325, 0.66, 1.5675, 0.495, 1.4025, 0.33, 1.2375, 0.165, 1.0725, 0, 0.9075, 1.815, 0.7425, 1.65, 0.5775, 1.485, 0.4125, 1.32, 0.2475, 1.155, 0.0825, 0.99, 1.8975, 0.825, 1.7325, 0.66, 1.5675, 0.495, 1.4025, 0.33, 1.2375, 0.165, 1.0725],
  "SoftwareVersions": "syngo_MR_D13D",
  "SpacingBetweenSlices": 1.9,
  "StationName": "AWP66014",
  "TaskName": "updating",
  "TotalReadoutTime": 0.0534753,
  "TxRefAmp": 229.88,
  "WipMemBlock": "76d18cde-3618-4b00-a37d-8431b55f2ac8||Sequence: vd13d/master r/0735857; Nov 19 2014 09:21:40 by eja",
  "dcmmeta_affine": [
    [-1.8946486711502075, 0.08272218704223633, 0.019323354586958885, 103.16249084472656],
    [0.07753758877515793, 1.8601776361465454, -0.3620927035808563, -94.62715148925781],
    [0.034683141857385635, 0.36028429865837097, 1.8650778532028198, -83.50679016113281],
    [0.0, 0.0, 0.0, 1.0]
],
  "dcmmeta_reorient_transform": [
    [0.0, -1.0, 0.0, 115.0],
    [1.0, 0.0, 0.0, 0.0],
    [0.0, 0.0, 1.0, 0.0],
    [0.0, 0.0, 0.0, 1.0]
],
  "dcmmeta_shape": [116, 116, 72, 218],
  "dcmmeta_slice_dim": 2,
  "dcmmeta_version": 0.6,
  "global": {
    "const": {
      "AcquisitionMatrix": [116, 0, 0, 116],
      "AngioFlag": "N",
      "BitsAllocated": 16,
      "BitsStored": 16,
      "BodyPartExamined": "HEAD",
      "Columns": 1044,
      "EchoNumbers": 1,
      "EchoTime": 30.0,
      "EchoTrainLength": 50,
      "FlipAngle": 81.0,
      "HighBit": 15,
      "ImageOrientationPatient": [0.99899655219307, -0.0408834557646, 0.01828747525253, 0.04361715275319, 0.98082091667505, -0.1899680852102],
      "ImagePositionPatient": [-1030.1756012829, -946.43824052467, 109.00483892497],
      "ImageType": [
        "ORIGINAL",
        "PRIMARY",
        "M",
        "MB",
        "ND",
        "MOSAIC"
],
      "ImagedNucleus": "1H",
      "ImagingFrequency": 123.260621,
      "InPlanePhaseEncodingDirection": "COL",
      "LargestImagePixelValue": 65535,
      "MRAcquisitionType": "2D",
      "MagneticFieldStrength": 3.0,
      "Manufacturer": "SIEMENS",
      "ManufacturerModelName": "Prisma",
      "Modality": "MR",
      "NumberOfAverages": 1.0,
      "NumberOfPhaseEncodingSteps": 101,
      "PercentPhaseFieldOfView": 100.0,
      "PercentSampling": 100.0,
      "PerformedProcedureStepStartTime": "162630.091000",
      "PhotometricInterpretation": "MONOCHROME2",
      "PixelBandwidth": 1435.0,
      "PixelRepresentation": 0,
      "PixelSpacing": [1.8965517282486, 1.8965517282486],
      "ProtocolName": "mbep2d_bold_MB3_learn4",
      "RepetitionTime": 2000.0,
      "Rows": 1044,
      "SAR": 0.06118122664132,
      "SamplesPerPixel": 1,
      "ScanOptions": [
        "PFP",
        "FS"
],
      "ScanningSequence": "EP",
      "SequenceName": "epfid2d1_116",
      "SequenceVariant": [
        "SK",
        "SS"
],
      "SeriesDescription": "mbep2d_bold_MB3_learn4",
      "SeriesNumber": 8,
      "SeriesTime": "171102.791000",
      "SliceLocation": -62.889170846879,
      "SliceThickness": 1.8999999761581,
      "SmallestImagePixelValue": 0,
      "SoftwareVersions": "syngo MR D13D",
      "SpacingBetweenSlices": 1.8999999870103,
      "SpecificCharacterSet": "ISO_IR 100",
      "StudyID": "1",
      "StudyTime": "162630.018000",
      "TimeOfLastCalibration": ["123723.000000", "123723.000000"],
      "TransmitCoilName": "Body",
      "VariableFlipAngleFlag": "N",
      "WindowCenterWidthExplanation": "Algo1",
      "dBdt": 0.0},
    "slices": {}
  },
  "time": {
    "samples": {
      "AcquisitionNumber": [1, 2, 3, 4, 5, 6, 7, 8, 9, 10, 11, 12, 13, 14, 15, 16, 17, 18, 19, 20, 21, 22, 23, 24, 25, 26, 27, 28, 29, 30, 31, 32, 33, 34, 35, 36, 37, 38, 39, 40, 41, 42, 43, 44, 45, 46, 47, 48, 49, 50, 51, 52, 53, 54, 55, 56, 57, 58, 59, 60, 61, 62, 63, 64, 65, 66, 67, 68, 69, 70, 71, 72, 73, 74, 75, 76, 77, 78, 79, 80, 81, 82, 83, 84, 85, 86, 87, 88, 89, 90, 91, 92, 93, 94, 95, 96, 97, 98, 99, 100, 101, 102, 103, 104, 105, 106, 107, 108, 109, 110, 111, 112, 113, 114, 115, 116, 117, 118, 119, 120, 121, 122, 123, 124, 125, 126, 127, 128, 129, 130, 131, 132, 133, 134, 135, 136, 137, 138, 139, 140, 141, 142, 143, 144, 145, 146, 147, 148, 149, 150, 151, 152, 153, 154, 155, 156, 157, 158, 159, 160, 161, 162, 163, 164, 165, 166, 167, 168, 169, 170, 171, 172, 173, 174, 175, 176, 177, 178, 179, 180, 181, 182, 183, 184, 185, 186, 187, 188, 189, 190, 191, 192, 193, 194, 195, 196, 197, 198, 199, 200, 201, 202, 203, 204, 205, 206, 207, 208, 209, 210, 211, 212, 213, 214, 215, 216, 217, 218],
      "AcquisitionTime": ["171048.172500", "171050.172500", "171052.172500", "171054.172500", "171056.172500", "171058.172500", "171100.172500", "171102.172500", "171104.172500", "171106.172500", "171108.172500", "171110.172500", "171112.175000", "171114.175000", "171116.175000", "171118.175000", "171120.175000", "171122.175000", "171124.175000", "171126.175000", "171128.175000", "171130.175000", "171132.175000", "171134.175000", "171136.175000", "171138.175000", "171140.175000", "171142.175000", "171144.175000", "171146.175000", "171148.175000", "171150.175000", "171152.175000", "171154.175000", "171156.175000", "171158.175000", "171200.175000", "171202.175000", "171204.175000", "171206.175000", "171208.175000", "171210.175000", "171212.175000", "171214.175000", "171216.175000", "171218.175000", "171220.175000", "171222.175000", "171224.175000", "171226.175000", "171228.175000", "171230.175000", "171232.175000", "171234.175000", "171236.175000", "171238.175000", "171240.175000", "171242.175000", "171244.175000", "171246.175000", "171248.175000", "171250.175000", "171252.175000", "171254.175000", "171256.175000", "171258.175000", "171300.175000", "171302.175000", "171304.175000", "171306.175000", "171308.175000", "171310.175000", "171312.175000", "171314.175000", "171316.175000", "171318.175000", "171320.175000", "171322.175000", "171324.175000", "171326.175000", "171328.175000", "171330.175000", "171332.175000", "171334.175000", "171336.175000", "171338.175000", "171340.175000", "171342.175000", "171344.175000", "171346.175000", "171348.175000", "171350.175000", "171352.175000", "171354.175000", "171356.175000", "171358.175000", "171400.175000", "171402.175000", "171404.175000", "171406.175000", "171408.175000", "171410.175000", "171412.175000", "171414.175000", "171416.175000", "171418.175000", "171420.175000", "171422.175000", "171424.175000", "171426.175000", "171428.175000", "171430.175000", "171432.175000", "171434.175000", "171436.175000", "171438.175000", "171440.175000", "171442.175000", "171444.175000", "171446.175000", "171448.175000", "171450.175000", "171452.175000", "171454.175000", "171456.175000", "171458.175000", "171500.175000", "171502.175000", "171504.175000", "171506.175000", "171508.175000", "171510.175000", "171512.175000", "171514.175000", "171516.175000", "171518.175000", "171520.175000", "171522.175000", "171524.175000", "171526.175000", "171528.175000", "171530.175000", "171532.175000", "171534.175000", "171536.175000", "171538.175000", "171540.175000", "171542.175000", "171544.175000", "171546.175000", "171548.175000", "171550.175000", "171552.175000", "171554.175000", "171556.175000", "171558.175000", "171600.175000", "171602.175000", "171604.175000", "171606.175000", "171608.175000", "171610.175000", "171612.175000", "171614.175000", "171616.175000", "171618.175000", "171620.175000", "171622.175000", "171624.175000", "171626.175000", "171628.175000", "171630.175000", "171632.175000", "171634.175000", "171636.175000", "171638.175000", "171640.175000", "171642.175000", "171644.175000", "171646.175000", "171648.175000", "171650.175000", "171652.175000", "171654.175000", "171656.175000", "171658.175000", "171700.175000", "171702.175000", "171704.175000", "171706.175000", "171708.175000", "171710.175000", "171712.175000", "171714.175000", "171716.175000", "171718.175000", "171720.175000", "171722.175000", "171724.175000", "171726.175000", "171728.175000", "171730.175000", "171732.175000", "171734.175000", "171736.175000", "171738.175000", "171740.175000", "171742.175000", "171744.175000", "171746.175000", "171748.175000", "171750.175000", "171752.175000", "171754.175000", "171756.175000", "171758.175000", "171800.175000", "171802.175000"],
      "ContentTime": ["171102.797000", "171103.790000", "171103.795000", "171104.792000", "171105.791000", "171106.792000", "171106.796000", "171107.792000", "171108.790000", "171109.790000", "171110.791000", "171112.791000", "171114.791000", "171116.792000", "171118.790000", "171120.792000", "171122.792000", "171124.792000", "171126.792000", "171128.791000", "171130.791000", "171132.791000", "171134.791000", "171136.791000", "171138.792000", "171140.792000", "171142.793000", "171144.792000", "171146.791000", "171148.791000", "171150.791000", "171152.791000", "171154.791000", "171156.792000", "171158.792000", "171200.792000", "171202.792000", "171204.792000", "171206.791000", "171208.791000", "171210.792000", "171212.791000", "171214.793000", "171216.792000", "171218.792000", "171220.791000", "171222.789000", "171224.789000", "171226.790000", "171228.791000", "171230.791000", "171232.792000", "171234.792000", "171236.792000", "171238.791000", "171240.791000", "171242.792000", "171244.791000", "171246.791000", "171248.791000", "171250.792000", "171252.793000", "171254.791000", "171256.791000", "171258.791000", "171300.791000", "171302.792000", "171304.792000", "171306.791000", "171308.792000", "171310.793000", "171312.792000", "171314.792000", "171316.791000", "171318.791000", "171320.791000", "171322.791000", "171324.792000", "171326.793000", "171328.792000", "171330.791000", "171332.791000", "171334.791000", "171336.792000", "171338.791000", "171340.791000", "171342.793000", "171344.793000", "171346.792000", "171348.791000", "171350.790000", "171352.790000", "171354.792000", "171356.792000", "171358.792000", "171400.792000", "171402.793000", "171404.793000", "171406.792000", "171408.792000", "171410.791000", "171412.791000", "171414.791000", "171416.791000", "171418.792000", "171420.790000", "171422.792000", "171424.790000", "171426.790000", "171428.792000", "171430.790000", "171432.790000", "171434.792000", "171436.792000", "171438.791000", "171440.790000", "171442.790000", "171444.789000", "171446.791000", "171448.790000", "171450.790000", "171452.792000", "171454.791000", "171456.791000", "171458.790000", "171500.790000", "171502.790000", "171504.790000", "171506.790000", "171508.790000", "171510.791000", "171512.791000", "171514.798000", "171516.790000", "171518.790000", "171520.790000", "171522.790000", "171524.790000", "171526.790000", "171528.792000", "171530.790000", "171532.791000", "171534.789000", "171536.790000", "171538.790000", "171540.790000", "171542.790000", "171544.791000", "171546.791000", "171548.791000", "171550.811000", "171552.790000", "171554.790000", "171556.790000", "171558.789000", "171600.790000", "171602.790000", "171604.791000", "171606.790000", "171608.790000", "171610.790000", "171612.790000", "171614.789000", "171616.790000", "171618.790000", "171620.791000", "171622.812000", "171624.791000", "171626.790000", "171628.790000", "171630.791000", "171632.790000", "171634.790000", "171636.790000", "171638.791000", "171640.791000", "171642.791000", "171644.790000", "171646.790000", "171648.790000", "171650.790000", "171652.791000", "171654.791000", "171656.792000", "171658.791000", "171700.791000", "171702.791000", "171704.791000", "171706.791000", "171708.791000", "171710.791000", "171712.792000", "171714.792000", "171716.792000", "171718.791000", "171720.791000", "171722.791000", "171724.791000", "171726.792000", "171728.791000", "171730.792000", "171732.792000", "171734.792000", "171736.791000", "171738.791000", "171740.791000", "171742.791000", "171744.791000", "171746.791000", "171748.791000", "171750.792000", "171752.792000", "171754.790000", "171756.791000", "171758.791000", "171800.791000", "171802.791000", "171804.364000"],
      "InstanceCreationTime": ["171102.797000", "171103.790000", "171103.795000", "171104.792000", "171105.791000", "171106.792000", "171106.796000", "171107.792000", "171108.790000", "171109.790000", "171110.791000", "171112.791000", "171114.791000", "171116.792000", "171118.790000", "171120.792000", "171122.792000", "171124.792000", "171126.792000", "171128.791000", "171130.791000", "171132.791000", "171134.791000", "171136.791000", "171138.792000", "171140.792000", "171142.793000", "171144.792000", "171146.791000", "171148.791000", "171150.791000", "171152.791000", "171154.791000", "171156.792000", "171158.792000", "171200.792000", "171202.792000", "171204.792000", "171206.791000", "171208.791000", "171210.792000", "171212.791000", "171214.793000", "171216.792000", "171218.792000", "171220.791000", "171222.789000", "171224.789000", "171226.790000", "171228.791000", "171230.791000", "171232.792000", "171234.792000", "171236.792000", "171238.791000", "171240.791000", "171242.792000", "171244.791000", "171246.791000", "171248.791000", "171250.792000", "171252.793000", "171254.791000", "171256.791000", "171258.791000", "171300.791000", "171302.792000", "171304.792000", "171306.791000", "171308.792000", "171310.793000", "171312.792000", "171314.792000", "171316.791000", "171318.791000", "171320.791000", "171322.791000", "171324.792000", "171326.793000", "171328.792000", "171330.791000", "171332.791000", "171334.791000", "171336.792000", "171338.791000", "171340.791000", "171342.793000", "171344.793000", "171346.792000", "171348.791000", "171350.790000", "171352.790000", "171354.792000", "171356.792000", "171358.792000", "171400.792000", "171402.793000", "171404.793000", "171406.792000", "171408.792000", "171410.791000", "171412.791000", "171414.791000", "171416.791000", "171418.792000", "171420.790000", "171422.792000", "171424.790000", "171426.790000", "171428.792000", "171430.790000", "171432.790000", "171434.792000", "171436.792000", "171438.791000", "171440.790000", "171442.790000", "171444.789000", "171446.791000", "171448.790000", "171450.790000", "171452.792000", "171454.791000", "171456.791000", "171458.790000", "171500.790000", "171502.790000", "171504.790000", "171506.790000", "171508.790000", "171510.791000", "171512.791000", "171514.798000", "171516.790000", "171518.790000", "171520.790000", "171522.790000", "171524.790000", "171526.790000", "171528.792000", "171530.790000", "171532.791000", "171534.789000", "171536.790000", "171538.790000", "171540.790000", "171542.790000", "171544.791000", "171546.791000", "171548.791000", "171550.811000", "171552.790000", "171554.790000", "171556.790000", "171558.789000", "171600.790000", "171602.790000", "171604.791000", "171606.790000", "171608.790000", "171610.790000", "171612.790000", "171614.789000", "171616.790000", "171618.790000", "171620.791000", "171622.812000", "171624.791000", "171626.790000", "171628.790000", "171630.791000", "171632.790000", "171634.790000", "171636.790000", "171638.791000", "171640.791000", "171642.791000", "171644.790000", "171646.790000", "171648.790000", "171650.790000", "171652.791000", "171654.791000", "171656.792000", "171658.791000", "171700.791000", "171702.791000", "171704.791000", "171706.791000", "171708.791000", "171710.791000", "171712.792000", "171714.792000", "171716.792000", "171718.791000", "171720.791000", "171722.791000", "171724.791000", "171726.792000", "171728.791000", "171730.792000", "171732.792000", "171734.792000", "171736.791000", "171738.791000", "171740.791000", "171742.791000", "171744.791000", "171746.791000", "171748.791000", "171750.792000", "171752.792000", "171754.790000", "171756.791000", "171758.791000", "171800.791000", "171802.791000", "171804.364000"],
      "InstanceNumber": [1, 2, 3, 4, 5, 6, 7, 8, 9, 10, 11, 12, 13, 14, 15, 16, 17, 18, 19, 20, 21, 22, 23, 24, 25, 26, 27, 28, 29, 30, 31, 32, 33, 34, 35, 36, 37, 38, 39, 40, 41, 42, 43, 44, 45, 46, 47, 48, 49, 50, 51, 52, 53, 54, 55, 56, 57, 58, 59, 60, 61, 62, 63, 64, 65, 66, 67, 68, 69, 70, 71, 72, 73, 74, 75, 76, 77, 78, 79, 80, 81, 82, 83, 84, 85, 86, 87, 88, 89, 90, 91, 92, 93, 94, 95, 96, 97, 98, 99, 100, 101, 102, 103, 104, 105, 106, 107, 108, 109, 110, 111, 112, 113, 114, 115, 116, 117, 118, 119, 120, 121, 122, 123, 124, 125, 126, 127, 128, 129, 130, 131, 132, 133, 134, 135, 136, 137, 138, 139, 140, 141, 142, 143, 144, 145, 146, 147, 148, 149, 150, 151, 152, 153, 154, 155, 156, 157, 158, 159, 160, 161, 162, 163, 164, 165, 166, 167, 168, 169, 170, 171, 172, 173, 174, 175, 176, 177, 178, 179, 180, 181, 182, 183, 184, 185, 186, 187, 188, 189, 190, 191, 192, 193, 194, 195, 196, 197, 198, 199, 200, 201, 202, 203, 204, 205, 206, 207, 208, 209, 210, 211, 212, 213, 214, 215, 216, 217, 218],
      "WindowCenter": [18836.0, 18800.0, 18761.0, 18743.0, 18779.0, 18744.0, 18725.0, 18728.0, 18706.0, 18707.0, 18728.0, 18712.0, 18698.0, 18715.0, 18720.0, 18743.0, 18729.0, 18723.0, 18715.0, 18721.0, 18746.0, 18744.0, 18719.0, 18710.0, 18707.0, 18742.0, 18727.0, 18748.0, 18725.0, 18693.0, 18720.0, 18728.0, 18686.0, 18768.0, 18779.0, 18775.0, 18754.0, 18702.0, 18755.0, 18729.0, 18784.0, 18744.0, 18743.0, 18730.0, 18705.0, 18709.0, 18707.0, 18700.0, 18691.0, 18705.0, 18669.0, 18686.0, 18695.0, 18708.0, 18707.0, 18718.0, 18697.0, 18718.0, 18700.0, 18709.0, 18691.0, 18685.0, 18701.0, 18739.0, 18730.0, 18714.0, 18695.0, 18688.0, 18690.0, 18697.0, 18681.0, 18715.0, 18700.0, 18705.0, 18701.0, 18693.0, 18712.0, 18677.0, 18713.0, 18681.0, 18684.0, 18689.0, 18683.0, 18677.0, 18688.0, 18685.0, 18688.0, 18685.0, 18692.0, 18689.0, 18695.0, 18734.0, 18681.0, 18675.0, 18688.0, 18698.0, 18686.0, 18696.0, 18688.0, 18710.0, 18742.0, 18755.0, 18738.0, 18735.0, 18711.0, 18722.0, 18692.0, 18701.0, 18694.0, 18714.0, 18718.0, 18725.0, 18705.0, 18694.0, 18694.0, 18708.0, 18702.0, 18675.0, 18709.0, 18720.0, 18716.0, 18700.0, 18693.0, 18700.0, 18701.0, 18718.0, 18717.0, 18720.0, 18749.0, 18724.0, 18734.0, 18722.0, 18712.0, 18709.0, 18721.0, 18727.0, 18754.0, 18746.0, 18716.0, 18712.0, 18688.0, 18696.0, 18683.0, 18717.0, 18715.0, 18740.0, 18718.0, 18704.0, 18697.0, 18693.0, 18691.0, 18692.0, 18703.0, 18698.0, 18707.0, 18697.0, 18705.0, 18717.0, 18707.0, 18682.0, 18673.0, 18677.0, 18699.0, 18698.0, 18690.0, 18690.0, 18694.0, 18684.0, 18685.0, 18723.0, 18718.0, 18712.0, 18711.0, 18688.0, 18692.0, 18703.0, 18697.0, 18726.0, 18700.0, 18721.0, 18709.0, 18714.0, 18704.0, 18704.0, 18704.0, 18701.0, 18707.0, 18704.0, 18713.0, 18684.0, 18701.0, 18699.0, 18704.0, 18698.0, 18694.0, 18692.0, 18694.0, 18713.0, 18683.0, 18689.0, 18698.0, 18715.0, 18703.0, 18684.0, 18715.0, 18728.0, 18727.0, 18727.0, 18680.0, 18698.0, 18679.0, 18703.0, 18718.0, 18703.0, 18709.0, 18723.0, 18732.0, 18764.0],
      "WindowWidth": [50325.0, 50195.0, 50198.0, 50163.0, 50192.0, 50160.0, 50127.0, 50057.0, 50021.0, 50010.0, 50067.0, 50072.0, 50077.0, 50144.0, 50194.0, 50169.0, 50115.0, 50066.0, 50038.0, 50101.0, 50101.0, 50031.0, 50040.0, 50060.0, 50128.0, 50170.0, 50126.0, 50079.0, 50007.0, 49980.0, 50112.0, 50115.0, 50048.0, 50234.0, 50226.0, 50143.0, 50107.0, 50091.0, 50072.0, 50046.0, 50064.0, 50091.0, 50123.0, 50034.0, 49986.0, 50023.0, 49953.0, 49892.0, 49933.0, 49996.0, 49965.0, 50011.0, 50014.0, 50079.0, 50043.0, 50003.0, 49993.0, 50038.0, 50052.0, 49998.0, 49975.0, 50009.0, 50252.0, 50271.0, 50172.0, 50058.0, 49989.0, 50022.0, 50035.0, 50062.0, 50078.0, 50130.0, 50145.0, 50147.0, 50134.0, 50130.0, 50093.0, 50086.0, 50069.0, 50089.0, 50136.0, 50055.0, 50019.0, 50084.0, 50127.0, 50136.0, 50091.0, 50020.0, 50011.0, 50079.0, 50213.0, 50127.0, 50040.0, 50048.0, 50056.0, 50085.0, 50091.0, 50060.0, 50068.0, 50173.0, 50217.0, 50200.0, 50109.0, 50097.0, 50046.0, 49982.0, 49942.0, 49901.0, 49944.0, 49967.0, 50072.0, 50007.0, 49949.0, 49898.0, 49955.0, 49998.0, 49935.0, 49897.0, 49927.0, 50015.0, 50060.0, 50063.0, 50001.0, 49993.0, 50075.0, 50131.0, 50131.0, 50109.0, 50135.0, 50147.0, 50153.0, 50182.0, 50163.0, 50116.0, 50031.0, 50094.0, 50199.0, 50135.0, 50059.0, 49998.0, 50032.0, 50026.0, 50043.0, 50096.0, 50117.0, 50072.0, 50083.0, 50065.0, 50085.0, 50072.0, 50117.0, 50163.0, 50134.0, 50014.0, 50124.0, 50072.0, 50030.0, 50000.0, 49911.0, 49863.0, 49846.0, 49897.0, 50015.0, 50095.0, 50056.0, 50021.0, 50024.0, 50054.0, 50042.0, 50145.0, 50107.0, 50047.0, 49974.0, 49938.0, 50011.0, 50063.0, 50014.0, 50018.0, 50026.0, 50063.0, 50126.0, 50069.0, 50006.0, 49982.0, 49995.0, 50097.0, 50147.0, 50157.0, 50103.0, 50087.0, 50098.0, 50155.0, 50133.0, 50084.0, 50094.0, 50126.0, 50070.0, 49999.0, 49982.0, 50009.0, 50060.0, 50023.0, 49993.0, 49984.0, 50014.0, 50078.0, 50089.0, 50017.0, 49992.0, 49955.0, 49969.0, 50029.0, 50037.0, 50005.0, 50021.0, 50146.0, 50162.0, 50122.0]
    },
    "slices": {}
  }
}