{
  "AcquisitionMatrixPE": 116,
  "AcquisitionNumber": 1,
  "AcquisitionTime": "16:42:59.305000",
  "BandwidthPerPixelPhaseEncode": 18.539,
  "BaseResolution": 116,
  "BodyPartExamined": "HEAD",
  "ConsistencyInfo": "N4_VD13D_LATEST_20130810",
  "ConversionSoftware": "dcm2niix",
  "ConversionSoftwareVersion": "v1.0.20190410  (JP2:OpenJPEG) (JP-LS:CharLS) GCC5.5.0",
  "DerivedVendorReportedEchoSpacing": 0.000930006,
  "DeviceSerialNumber": "66014",
  "DwellTime": 3e-06,
  "EchoTime": 0.03,
  "EchoTrainLength": 50,
  "EffectiveEchoSpacing": 0.000465003,
  "FlipAngle": 81,
  "ImageComments": "Unaliased_MB3_PE4",
  "ImageOrientationPatientDICOM": [0.998997, -0.0408835, 0.0182875, 0.0436172, 0.980821, -0.189968],
  "ImageType": [
    "ORIGINAL",
    "PRIMARY",
    "M",
    "MB",
    "ND",
    "MOSAIC"
],
  "ImagingFrequency": 123.261,
  "InPlanePhaseEncodingDirectionDICOM": "COL",
  "InstitutionAddress": "Yiheyuan_Road_5_Beijing_Haidian_CN_100871",
  "InstitutionName": "Peking_University",
  "InstitutionalDepartmentName": "Department",
  "MRAcquisitionType": "2D",
  "MagneticFieldStrength": 3,
  "Manufacturer": "Siemens",
  "ManufacturersModelName": "Prisma",
  "Modality": "MR",
  "MultibandAccelerationFactor": 3,
  "ParallelReductionFactorInPlane": 2,
  "PartialFourier": 0.875,
  "PatientPosition": "HFS",
  "PercentPhaseFOV": 100,
  "PhaseEncodingDirection": "j-",
  "PhaseEncodingSteps": 101,
  "PhaseResolution": 1,
  "PixelBandwidth": 1435,
  "ProcedureStepDescription": "Research_Projects_64CH",
  "ProtocolName": "mbep2d_bold_MB3_learn1",
  "PulseSequenceDetails": "%CustomerSeq%_cmrr_mbep2d_bold",
  "ReceiveCoilActiveElements": "HC1-7",
  "ReceiveCoilName": "HeadNeck_64",
  "ReconMatrixPE": 116,
  "RefLinesPE": 44,
  "RepetitionTime": 2,
  "SAR": 0.0611812,
  "ScanOptions": "PFP_FS",
  "ScanningSequence": "EP",
  "SequenceName": "epfid2d1_116",
  "SequenceVariant": "SK_SS",
  "SeriesDescription": "mbep2d_bold_MB3_learn1",
  "SeriesNumber": 4,
  "ShimSetting": [-3452, -2073, -1989, 177, -14, -153, -141, -24],
  "SliceThickness": 1.9,
  "SliceTiming": [0, 0.905, 1.8125, 0.74, 1.6475, 0.575, 1.4825, 0.41, 1.3175, 0.2475, 1.1525, 0.0825, 0.9875, 1.895, 0.8225, 1.73, 0.6575, 1.565, 0.4925, 1.4, 0.3275, 1.235, 0.165, 1.07, 0, 0.905, 1.8125, 0.74, 1.6475, 0.575, 1.4825, 0.41, 1.3175, 0.2475, 1.1525, 0.0825, 0.9875, 1.895, 0.8225, 1.73, 0.6575, 1.565, 0.4925, 1.4, 0.3275, 1.235, 0.165, 1.07, 0, 0.905, 1.8125, 0.74, 1.6475, 0.575, 1.4825, 0.41, 1.3175, 0.2475, 1.1525, 0.0825, 0.9875, 1.895, 0.8225, 1.73, 0.6575, 1.565, 0.4925, 1.4, 0.3275, 1.235, 0.165, 1.07],
  "SoftwareVersions": "syngo_MR_D13D",
  "SpacingBetweenSlices": 1.9,
  "StationName": "AWP66014",
  "TaskName": "updating",
  "TotalReadoutTime": 0.0534753,
  "TxRefAmp": 229.88,
  "WipMemBlock": "bd15cb45-6a9b-4bdb-a4d2-a76f2f4a3e0a||Sequence: vd13d/master r/0735857; Nov 19 2014 09:21:40 by eja",
  "dcmmeta_affine": [
    [-1.8946486711502075, 0.08272218704223633, 0.019323354586958885, 103.16249084472656],
    [0.07753758877515793, 1.8601776361465454, -0.3620927035808563, -94.62715148925781],
    [0.034683141857385635, 0.36028429865837097, 1.8650778532028198, -83.50679016113281],
    [0.0, 0.0, 0.0, 1.0]
],
  "dcmmeta_reorient_transform": [
    [0.0, -1.0, 0.0, 115.0],
    [1.0, 0.0, 0.0, 0.0],
    [0.0, 0.0, 1.0, 0.0],
    [0.0, 0.0, 0.0, 1.0]
],
  "dcmmeta_shape": [116, 116, 72, 218],
  "dcmmeta_slice_dim": 2,
  "dcmmeta_version": 0.6,
  "global": {
    "const": {
      "AcquisitionMatrix": [116, 0, 0, 116],
      "AngioFlag": "N",
      "BitsAllocated": 16,
      "BitsStored": 16,
      "BodyPartExamined": "HEAD",
      "Columns": 1044,
      "EchoNumbers": 1,
      "EchoTime": 30.0,
      "EchoTrainLength": 50,
      "FlipAngle": 81.0,
      "HighBit": 15,
      "ImageOrientationPatient": [0.99899655219307, -0.0408834557646, 0.01828747525253, 0.04361715275319, 0.98082091667505, -0.1899680852102],
      "ImagePositionPatient": [-1030.1756012829, -946.43824052467, 109.00483892497],
      "ImageType": [
        "ORIGINAL",
        "PRIMARY",
        "M",
        "MB",
        "ND",
        "MOSAIC"
],
      "ImagedNucleus": "1H",
      "ImagingFrequency": 123.260618,
      "InPlanePhaseEncodingDirection": "COL",
      "LargestImagePixelValue": 65535,
      "MRAcquisitionType": "2D",
      "MagneticFieldStrength": 3.0,
      "Manufacturer": "SIEMENS",
      "ManufacturerModelName": "Prisma",
      "Modality": "MR",
      "NumberOfAverages": 1.0,
      "NumberOfPhaseEncodingSteps": 101,
      "PercentPhaseFieldOfView": 100.0,
      "PercentSampling": 100.0,
      "PerformedProcedureStepStartTime": "162630.091000",
      "PhotometricInterpretation": "MONOCHROME2",
      "PixelBandwidth": 1435.0,
      "PixelRepresentation": 0,
      "PixelSpacing": [1.8965517282486, 1.8965517282486],
      "ProtocolName": "mbep2d_bold_MB3_learn1",
      "RepetitionTime": 2000.0,
      "Rows": 1044,
      "SAR": 0.06118122663565,
      "SamplesPerPixel": 1,
      "ScanOptions": [
        "PFP",
        "FS"
],
      "ScanningSequence": "EP",
      "SequenceName": "epfid2d1_116",
      "SequenceVariant": [
        "SK",
        "SS"
],
      "SeriesDescription": "mbep2d_bold_MB3_learn1",
      "SeriesNumber": 4,
      "SeriesTime": "164314.946000",
      "SliceLocation": -62.889170846879,
      "SliceThickness": 1.8999999761581,
      "SmallestImagePixelValue": 0,
      "SoftwareVersions": "syngo MR D13D",
      "SpacingBetweenSlices": 1.8999999870103,
      "SpecificCharacterSet": "ISO_IR 100",
      "StudyID": "1",
      "StudyTime": "162630.018000",
      "TimeOfLastCalibration": ["123723.000000", "123723.000000"],
      "TransmitCoilName": "Body",
      "VariableFlipAngleFlag": "N",
      "WindowCenterWidthExplanation": "Algo1",
      "dBdt": 0.0},
    "slices": {}
  },
  "time": {
    "samples": {
      "AcquisitionNumber": [1, 2, 3, 4, 5, 6, 7, 8, 9, 10, 11, 12, 13, 14, 15, 16, 17, 18, 19, 20, 21, 22, 23, 24, 25, 26, 27, 28, 29, 30, 31, 32, 33, 34, 35, 36, 37, 38, 39, 40, 41, 42, 43, 44, 45, 46, 47, 48, 49, 50, 51, 52, 53, 54, 55, 56, 57, 58, 59, 60, 61, 62, 63, 64, 65, 66, 67, 68, 69, 70, 71, 72, 73, 74, 75, 76, 77, 78, 79, 80, 81, 82, 83, 84, 85, 86, 87, 88, 89, 90, 91, 92, 93, 94, 95, 96, 97, 98, 99, 100, 101, 102, 103, 104, 105, 106, 107, 108, 109, 110, 111, 112, 113, 114, 115, 116, 117, 118, 119, 120, 121, 122, 123, 124, 125, 126, 127, 128, 129, 130, 131, 132, 133, 134, 135, 136, 137, 138, 139, 140, 141, 142, 143, 144, 145, 146, 147, 148, 149, 150, 151, 152, 153, 154, 155, 156, 157, 158, 159, 160, 161, 162, 163, 164, 165, 166, 167, 168, 169, 170, 171, 172, 173, 174, 175, 176, 177, 178, 179, 180, 181, 182, 183, 184, 185, 186, 187, 188, 189, 190, 191, 192, 193, 194, 195, 196, 197, 198, 199, 200, 201, 202, 203, 204, 205, 206, 207, 208, 209, 210, 211, 212, 213, 214, 215, 216, 217, 218],
      "AcquisitionTime": ["164259.305000", "164301.305000", "164303.305000", "164305.305000", "164307.305000", "164309.305000", "164311.305000", "164313.305000", "164315.305000", "164317.305000", "164319.305000", "164321.305000", "164323.305000", "164325.305000", "164327.305000", "164329.305000", "164331.305000", "164333.305000", "164335.305000", "164337.305000", "164339.305000", "164341.305000", "164343.305000", "164345.305000", "164347.305000", "164349.305000", "164351.305000", "164353.305000", "164355.305000", "164357.305000", "164359.305000", "164401.305000", "164403.305000", "164405.305000", "164407.305000", "164409.305000", "164411.305000", "164413.305000", "164415.305000", "164417.305000", "164419.305000", "164421.305000", "164423.305000", "164425.305000", "164427.305000", "164429.305000", "164431.305000", "164433.305000", "164435.305000", "164437.305000", "164439.305000", "164441.305000", "164443.305000", "164445.305000", "164447.305000", "164449.305000", "164451.305000", "164453.305000", "164455.305000", "164457.305000", "164459.305000", "164501.305000", "164503.305000", "164505.305000", "164507.305000", "164509.305000", "164511.305000", "164513.305000", "164515.305000", "164517.305000", "164519.305000", "164521.305000", "164523.305000", "164525.305000", "164527.305000", "164529.305000", "164531.305000", "164533.305000", "164535.305000", "164537.305000", "164539.305000", "164541.305000", "164543.305000", "164545.305000", "164547.305000", "164549.305000", "164551.305000", "164553.305000", "164555.305000", "164557.305000", "164559.305000", "164601.305000", "164603.305000", "164605.305000", "164607.305000", "164609.305000", "164611.305000", "164613.305000", "164615.305000", "164617.305000", "164619.305000", "164621.305000", "164623.305000", "164625.305000", "164627.305000", "164629.305000", "164631.305000", "164633.305000", "164635.305000", "164637.305000", "164639.305000", "164641.305000", "164643.305000", "164645.305000", "164647.305000", "164649.305000", "164651.305000", "164653.305000", "164655.305000", "164657.305000", "164659.305000", "164701.305000", "164703.305000", "164705.305000", "164707.305000", "164709.305000", "164711.305000", "164713.305000", "164715.305000", "164717.305000", "164719.305000", "164721.305000", "164723.305000", "164725.305000", "164727.305000", "164729.305000", "164731.305000", "164733.305000", "164735.305000", "164737.305000", "164739.305000", "164741.305000", "164743.305000", "164745.305000", "164747.305000", "164749.305000", "164751.305000", "164753.305000", "164755.305000", "164757.305000", "164759.305000", "164801.305000", "164803.305000", "164805.305000", "164807.305000", "164809.305000", "164811.305000", "164813.305000", "164815.305000", "164817.305000", "164819.305000", "164821.305000", "164823.305000", "164825.305000", "164827.305000", "164829.305000", "164831.305000", "164833.305000", "164835.305000", "164837.305000", "164839.305000", "164841.305000", "164843.305000", "164845.305000", "164847.305000", "164849.305000", "164851.305000", "164853.305000", "164855.305000", "164857.305000", "164859.305000", "164901.305000", "164903.305000", "164905.305000", "164907.305000", "164909.305000", "164911.305000", "164913.305000", "164915.305000", "164917.305000", "164919.305000", "164921.305000", "164923.305000", "164925.305000", "164927.305000", "164929.305000", "164931.305000", "164933.305000", "164935.305000", "164937.305000", "164939.305000", "164941.305000", "164943.305000", "164945.305000", "164947.305000", "164949.305000", "164951.305000", "164953.305000", "164955.305000", "164957.305000", "164959.305000", "165001.305000", "165003.305000", "165005.305000", "165007.305000", "165009.305000", "165011.305000", "165013.305000"],
      "ContentTime": ["164314.952000", "164315.944000", "164315.948000", "164317.445000", "164317.453000", "164318.945000", "164318.950000", "164320.445000", "164320.449000", "164321.944000", "164322.945000", "164324.446000", "164326.446000", "164328.445000", "164330.446000", "164332.444000", "164334.444000", "164336.444000", "164338.444000", "164340.444000", "164342.445000", "164344.445000", "164346.445000", "164348.445000", "164350.444000", "164352.444000", "164354.444000", "164356.444000", "164358.445000", "164400.445000", "164402.452000", "164404.446000", "164406.446000", "164408.445000", "164410.443000", "164412.444000", "164414.445000", "164416.446000", "164418.446000", "164420.446000", "164422.445000", "164424.445000", "164426.445000", "164428.445000", "164430.445000", "164432.445000", "164434.446000", "164436.446000", "164438.446000", "164440.446000", "164442.445000", "164444.445000", "164446.445000", "164448.445000", "164450.444000", "164452.446000", "164454.446000", "164456.447000", "164458.446000", "164500.445000", "164502.445000", "164504.445000", "164506.444000", "164508.445000", "164510.446000", "164512.446000", "164514.446000", "164516.446000", "164518.443000", "164520.445000", "164522.445000", "164524.445000", "164526.446000", "164528.446000", "164530.446000", "164532.446000", "164534.445000", "164536.445000", "164538.445000", "164540.445000", "164542.445000", "164544.446000", "164546.445000", "164548.446000", "164550.446000", "164552.445000", "164554.444000", "164556.445000", "164558.445000", "164600.444000", "164602.446000", "164604.446000", "164606.446000", "164608.446000", "164610.444000", "164612.445000", "164614.445000", "164616.445000", "164618.445000", "164620.446000", "164622.445000", "164624.444000", "164626.446000", "164628.444000", "164630.445000", "164632.446000", "164634.445000", "164636.445000", "164638.444000", "164640.446000", "164642.446000", "164644.444000", "164646.446000", "164648.445000", "164650.445000", "164652.445000", "164654.446000", "164656.446000", "164658.446000", "164700.446000", "164702.445000", "164704.445000", "164706.445000", "164708.445000", "164710.445000", "164712.446000", "164714.446000", "164716.446000", "164718.446000", "164720.444000", "164722.445000", "164724.446000", "164726.443000", "164728.445000", "164730.446000", "164732.446000", "164734.446000", "164736.446000", "164738.445000", "164740.445000", "164742.445000", "164744.445000", "164746.445000", "164748.446000", "164750.446000", "164752.446000", "164754.445000", "164756.446000", "164758.444000", "164800.445000", "164802.445000", "164804.446000", "164806.445000", "164808.447000", "164810.446000", "164812.445000", "164814.445000", "164816.445000", "164818.445000", "164820.445000", "164822.446000", "164824.446000", "164826.447000", "164828.446000", "164830.445000", "164832.445000", "164834.445000", "164836.445000", "164838.446000", "164840.446000", "164842.447000", "164844.446000", "164846.446000", "164848.444000", "164850.445000", "164852.445000", "164854.446000", "164856.446000", "164858.445000", "164900.445000", "164902.445000", "164904.445000", "164906.445000", "164908.444000", "164910.444000", "164912.445000", "164914.446000", "164916.446000", "164918.444000", "164920.446000", "164922.445000", "164924.445000", "164926.446000", "164928.445000", "164930.444000", "164932.447000", "164934.446000", "164936.446000", "164938.446000", "164940.445000", "164942.445000", "164944.445000", "164946.444000", "164948.446000", "164950.446000", "164952.446000", "164954.446000", "164956.446000", "164958.446000", "165000.445000", "165002.445000", "165004.445000", "165006.446000", "165008.446000", "165010.446000", "165012.446000", "165014.444000", "165016.085000"],
      "InstanceCreationTime": ["164314.952000", "164315.944000", "164315.948000", "164317.445000", "164317.453000", "164318.945000", "164318.950000", "164320.445000", "164320.449000", "164321.944000", "164322.945000", "164324.446000", "164326.446000", "164328.445000", "164330.446000", "164332.444000", "164334.444000", "164336.444000", "164338.444000", "164340.444000", "164342.445000", "164344.445000", "164346.445000", "164348.445000", "164350.444000", "164352.444000", "164354.444000", "164356.444000", "164358.445000", "164400.445000", "164402.452000", "164404.446000", "164406.446000", "164408.445000", "164410.443000", "164412.444000", "164414.445000", "164416.446000", "164418.446000", "164420.446000", "164422.445000", "164424.445000", "164426.445000", "164428.445000", "164430.445000", "164432.445000", "164434.446000", "164436.446000", "164438.446000", "164440.446000", "164442.445000", "164444.445000", "164446.445000", "164448.445000", "164450.444000", "164452.446000", "164454.446000", "164456.447000", "164458.446000", "164500.445000", "164502.445000", "164504.445000", "164506.444000", "164508.445000", "164510.446000", "164512.446000", "164514.446000", "164516.446000", "164518.443000", "164520.445000", "164522.445000", "164524.445000", "164526.446000", "164528.446000", "164530.446000", "164532.446000", "164534.445000", "164536.445000", "164538.445000", "164540.445000", "164542.445000", "164544.446000", "164546.445000", "164548.446000", "164550.446000", "164552.445000", "164554.444000", "164556.445000", "164558.445000", "164600.444000", "164602.446000", "164604.446000", "164606.446000", "164608.446000", "164610.444000", "164612.445000", "164614.445000", "164616.445000", "164618.445000", "164620.446000", "164622.445000", "164624.444000", "164626.446000", "164628.444000", "164630.445000", "164632.446000", "164634.445000", "164636.445000", "164638.444000", "164640.446000", "164642.446000", "164644.444000", "164646.446000", "164648.445000", "164650.445000", "164652.445000", "164654.446000", "164656.446000", "164658.446000", "164700.446000", "164702.445000", "164704.445000", "164706.445000", "164708.445000", "164710.445000", "164712.446000", "164714.446000", "164716.446000", "164718.446000", "164720.444000", "164722.445000", "164724.446000", "164726.443000", "164728.445000", "164730.446000", "164732.446000", "164734.446000", "164736.446000", "164738.445000", "164740.445000", "164742.445000", "164744.445000", "164746.445000", "164748.446000", "164750.446000", "164752.446000", "164754.445000", "164756.446000", "164758.444000", "164800.445000", "164802.445000", "164804.446000", "164806.445000", "164808.447000", "164810.446000", "164812.445000", "164814.445000", "164816.445000", "164818.445000", "164820.445000", "164822.446000", "164824.446000", "164826.447000", "164828.446000", "164830.445000", "164832.445000", "164834.445000", "164836.445000", "164838.446000", "164840.446000", "164842.447000", "164844.446000", "164846.446000", "164848.444000", "164850.445000", "164852.445000", "164854.446000", "164856.446000", "164858.445000", "164900.445000", "164902.445000", "164904.445000", "164906.445000", "164908.444000", "164910.444000", "164912.445000", "164914.446000", "164916.446000", "164918.444000", "164920.446000", "164922.445000", "164924.445000", "164926.446000", "164928.445000", "164930.444000", "164932.447000", "164934.446000", "164936.446000", "164938.446000", "164940.445000", "164942.445000", "164944.445000", "164946.444000", "164948.446000", "164950.446000", "164952.446000", "164954.446000", "164956.446000", "164958.446000", "165000.445000", "165002.445000", "165004.445000", "165006.446000", "165008.446000", "165010.446000", "165012.446000", "165014.444000", "165016.085000"],
      "InstanceNumber": [1, 2, 3, 4, 5, 6, 7, 8, 9, 10, 11, 12, 13, 14, 15, 16, 17, 18, 19, 20, 21, 22, 23, 24, 25, 26, 27, 28, 29, 30, 31, 32, 33, 34, 35, 36, 37, 38, 39, 40, 41, 42, 43, 44, 45, 46, 47, 48, 49, 50, 51, 52, 53, 54, 55, 56, 57, 58, 59, 60, 61, 62, 63, 64, 65, 66, 67, 68, 69, 70, 71, 72, 73, 74, 75, 76, 77, 78, 79, 80, 81, 82, 83, 84, 85, 86, 87, 88, 89, 90, 91, 92, 93, 94, 95, 96, 97, 98, 99, 100, 101, 102, 103, 104, 105, 106, 107, 108, 109, 110, 111, 112, 113, 114, 115, 116, 117, 118, 119, 120, 121, 122, 123, 124, 125, 126, 127, 128, 129, 130, 131, 132, 133, 134, 135, 136, 137, 138, 139, 140, 141, 142, 143, 144, 145, 146, 147, 148, 149, 150, 151, 152, 153, 154, 155, 156, 157, 158, 159, 160, 161, 162, 163, 164, 165, 166, 167, 168, 169, 170, 171, 172, 173, 174, 175, 176, 177, 178, 179, 180, 181, 182, 183, 184, 185, 186, 187, 188, 189, 190, 191, 192, 193, 194, 195, 196, 197, 198, 199, 200, 201, 202, 203, 204, 205, 206, 207, 208, 209, 210, 211, 212, 213, 214, 215, 216, 217, 218],
      "WindowCenter": [18734.0, 18688.0, 18646.0, 18681.0, 18666.0, 18660.0, 18638.0, 18637.0, 18670.0, 18634.0, 18653.0, 18624.0, 18636.0, 18625.0, 18638.0, 18645.0, 18641.0, 18632.0, 18623.0, 18632.0, 18625.0, 18629.0, 18642.0, 18633.0, 18642.0, 18628.0, 18624.0, 18628.0, 18639.0, 18649.0, 18653.0, 18638.0, 18628.0, 18625.0, 18640.0, 18638.0, 18646.0, 18658.0, 18666.0, 18635.0, 18634.0, 18659.0, 18653.0, 18651.0, 18644.0, 18668.0, 18653.0, 18635.0, 18645.0, 18647.0, 18660.0, 18670.0, 18672.0, 18693.0, 18674.0, 18659.0, 18688.0, 18716.0, 18716.0, 18695.0, 18670.0, 18654.0, 18676.0, 18698.0, 18670.0, 18682.0, 18648.0, 18672.0, 18687.0, 18670.0, 18681.0, 18665.0, 18684.0, 18673.0, 18702.0, 18687.0, 18683.0, 18674.0, 18672.0, 18672.0, 18664.0, 18689.0, 18672.0, 18684.0, 18707.0, 18674.0, 18680.0, 18687.0, 18662.0, 18701.0, 18684.0, 18669.0, 18678.0, 18682.0, 18669.0, 18692.0, 18685.0, 18687.0, 18687.0, 18689.0, 18678.0, 18667.0, 18675.0, 18700.0, 18692.0, 18684.0, 18675.0, 18679.0, 18698.0, 18698.0, 18683.0, 18681.0, 18671.0, 18692.0, 18693.0, 18674.0, 18690.0, 18724.0, 18688.0, 18698.0, 18688.0, 18690.0, 18684.0, 18699.0, 18679.0, 18685.0, 18705.0, 18689.0, 18698.0, 18706.0, 18696.0, 18699.0, 18715.0, 18702.0, 18704.0, 18675.0, 18685.0, 18690.0, 18681.0, 18695.0, 18682.0, 18697.0, 18678.0, 18694.0, 18698.0, 18666.0, 18706.0, 18689.0, 18691.0, 18668.0, 18686.0, 18691.0, 18679.0, 18689.0, 18667.0, 18661.0, 18679.0, 18690.0, 18671.0, 18669.0, 18674.0, 18686.0, 18686.0, 18682.0, 18694.0, 18650.0, 18664.0, 18681.0, 18682.0, 18683.0, 18683.0, 18666.0, 18682.0, 18689.0, 18680.0, 18691.0, 18690.0, 18684.0, 18661.0, 18667.0, 18715.0, 18685.0, 18664.0, 18693.0, 18688.0, 18681.0, 18680.0, 18689.0, 18662.0, 18690.0, 18686.0, 18683.0, 18683.0, 18700.0, 18672.0, 18666.0, 18679.0, 18678.0, 18676.0, 18695.0, 18698.0, 18686.0, 18702.0, 18669.0, 18663.0, 18706.0, 18693.0, 18691.0, 18705.0, 18707.0, 18683.0, 18716.0, 18713.0, 18691.0, 18718.0, 18677.0, 18683.0, 18696.0],
      "WindowWidth": [50597.0, 50429.0, 50544.0, 50562.0, 50494.0, 50387.0, 50387.0, 50374.0, 50356.0, 50335.0, 50334.0, 50343.0, 50360.0, 50330.0, 50373.0, 50377.0, 50362.0, 50348.0, 50354.0, 50358.0, 50354.0, 50367.0, 50375.0, 50381.0, 50374.0, 50345.0, 50390.0, 50380.0, 50386.0, 50381.0, 50442.0, 50433.0, 50427.0, 50354.0, 50328.0, 50326.0, 50366.0, 50339.0, 50271.0, 50244.0, 50291.0, 50280.0, 50323.0, 50311.0, 50367.0, 50355.0, 50336.0, 50315.0, 50273.0, 50298.0, 50329.0, 50345.0, 50335.0, 50323.0, 50300.0, 50343.0, 50426.0, 50372.0, 50301.0, 50255.0, 50265.0, 50361.0, 50359.0, 50313.0, 50287.0, 50247.0, 50310.0, 50313.0, 50308.0, 50252.0, 50200.0, 50262.0, 50270.0, 50242.0, 50257.0, 50261.0, 50271.0, 50255.0, 50254.0, 50301.0, 50307.0, 50320.0, 50370.0, 50353.0, 50272.0, 50255.0, 50234.0, 50226.0, 50294.0, 50245.0, 50236.0, 50265.0, 50338.0, 50340.0, 50323.0, 50322.0, 50283.0, 50307.0, 50306.0, 50309.0, 50338.0, 50261.0, 50197.0, 50282.0, 50324.0, 50331.0, 50290.0, 50268.0, 50209.0, 50279.0, 50316.0, 50283.0, 50300.0, 50288.0, 50312.0, 50347.0, 50332.0, 50293.0, 50298.0, 50290.0, 50322.0, 50310.0, 50213.0, 50186.0, 50222.0, 50249.0, 50319.0, 50357.0, 50279.0, 50261.0, 50338.0, 50362.0, 50335.0, 50328.0, 50305.0, 50291.0, 50318.0, 50322.0, 50329.0, 50323.0, 50316.0, 50299.0, 50291.0, 50277.0, 50255.0, 50309.0, 50293.0, 50239.0, 50250.0, 50274.0, 50236.0, 50227.0, 50243.0, 50238.0, 50273.0, 50294.0, 50374.0, 50354.0, 50273.0, 50215.0, 50288.0, 50378.0, 50363.0, 50292.0, 50252.0, 50274.0, 50237.0, 50315.0, 50317.0, 50270.0, 50210.0, 50250.0, 50293.0, 50287.0, 50352.0, 50321.0, 50274.0, 50284.0, 50281.0, 50274.0, 50275.0, 50271.0, 50306.0, 50300.0, 50285.0, 50257.0, 50291.0, 50274.0, 50283.0, 50250.0, 50297.0, 50316.0, 50339.0, 50291.0, 50275.0, 50260.0, 50280.0, 50291.0, 50256.0, 50252.0, 50208.0, 50237.0, 50246.0, 50299.0, 50343.0, 50342.0, 50335.0, 50273.0, 50247.0, 50227.0, 50329.0, 50335.0, 50298.0, 50228.0, 50196.0, 50255.0, 50317.0, 50348.0]
    },
    "slices": {}
  }
}