{
  "AcquisitionMatrixPE": 116,
  "AcquisitionNumber": 1,
  "AcquisitionTime": "17:49:22.697500",
  "BandwidthPerPixelPhaseEncode": 18.539,
  "BaseResolution": 116,
  "BodyPartExamined": "HEAD",
  "ConsistencyInfo": "N4_VD13D_LATEST_20130810",
  "ConversionSoftware": "dcm2niix",
  "ConversionSoftwareVersion": "v1.0.20190410  (JP2:OpenJPEG) (JP-LS:CharLS) GCC5.5.0",
  "DerivedVendorReportedEchoSpacing": 0.000930006,
  "DeviceSerialNumber": "66014",
  "DwellTime": 3e-06,
  "EchoTime": 0.03,
  "EchoTrainLength": 50,
  "EffectiveEchoSpacing": 0.000465003,
  "FlipAngle": 81,
  "ImageComments": "Unaliased_MB3_PE4",
  "ImageOrientationPatientDICOM": [0.999492, -0.00639335, 0.031221, 0.010467, 0.991179, -0.132116],
  "ImageType": [
    "ORIGINAL",
    "PRIMARY",
    "M",
    "MB",
    "ND",
    "MOSAIC"
],
  "ImagingFrequency": 123.261,
  "InPlanePhaseEncodingDirectionDICOM": "COL",
  "InstitutionAddress": "Yiheyuan_Road_5_Beijing_Haidian_CN_100871",
  "InstitutionName": "Peking_Univeristy",
  "InstitutionalDepartmentName": "Department",
  "MRAcquisitionType": "2D",
  "MagneticFieldStrength": 3,
  "Manufacturer": "Siemens",
  "ManufacturersModelName": "Prisma",
  "Modality": "MR",
  "MultibandAccelerationFactor": 3,
  "ParallelReductionFactorInPlane": 2,
  "PartialFourier": 0.875,
  "PatientPosition": "HFS",
  "PercentPhaseFOV": 100,
  "PhaseEncodingDirection": "j-",
  "PhaseEncodingSteps": 101,
  "PhaseResolution": 1,
  "PixelBandwidth": 1435,
  "ProcedureStepDescription": "Research_Projects_64CH",
  "ProtocolName": "mbep2d_bold_MB3_learn6",
  "PulseSequenceDetails": "%CustomerSeq%_cmrr_mbep2d_bold",
  "ReceiveCoilActiveElements": "HC1-7",
  "ReceiveCoilName": "HeadNeck_64",
  "ReconMatrixPE": 116,
  "RefLinesPE": 44,
  "RepetitionTime": 2,
  "SAR": 0.0546129,
  "ScanOptions": "PFP_FS",
  "ScanningSequence": "EP",
  "SequenceName": "epfid2d1_116",
  "SequenceVariant": "SK_SS",
  "SeriesDescription": "mbep2d_bold_MB3_learn6",
  "SeriesNumber": 11,
  "ShimSetting": [-3448, -2081, -1990, 401, -1, -182, -44, -10],
  "SliceThickness": 1.9,
  "SliceTiming": [0, 0.9075, 1.815, 0.7425, 1.65, 0.5775, 1.485, 0.4125, 1.32, 0.2475, 1.155, 0.0825, 0.99, 1.8975, 0.825, 1.7325, 0.66, 1.5675, 0.495, 1.4025, 0.33, 1.2375, 0.165, 1.0725, 0, 0.9075, 1.815, 0.7425, 1.65, 0.5775, 1.485, 0.4125, 1.32, 0.2475, 1.155, 0.0825, 0.99, 1.8975, 0.825, 1.7325, 0.66, 1.5675, 0.495, 1.4025, 0.33, 1.2375, 0.165, 1.0725, 0, 0.9075, 1.815, 0.7425, 1.65, 0.5775, 1.485, 0.4125, 1.32, 0.2475, 1.155, 0.0825, 0.99, 1.8975, 0.825, 1.7325, 0.66, 1.5675, 0.495, 1.4025, 0.33, 1.2375, 0.165, 1.0725],
  "SoftwareVersions": "syngo_MR_D13D",
  "SpacingBetweenSlices": 1.9,
  "StationName": "AWP66014",
  "TaskName": "updating",
  "TotalReadoutTime": 0.0534753,
  "TxRefAmp": 217.913,
  "WipMemBlock": "c6b09d45-e7dc-4bff-9df0-cd5bf27849cd||Sequence: vd13d/master r/0735857; Nov 19 2014 09:21:40 by eja",
  "dcmmeta_affine": [
    [-1.8955883979797363, 0.01985130086541176, 0.05719173327088356, 105.69063568115234],
    [0.01212531328201294, 1.8798222541809082, -0.2515132427215576, -90.20722198486328],
    [0.05921219289302826, 0.2505642771720886, 1.8824107646942139, -94.58253479003906],
    [0.0, 0.0, 0.0, 1.0]
],
  "dcmmeta_reorient_transform": [
    [0.0, -1.0, 0.0, 115.0],
    [1.0, 0.0, 0.0, 0.0],
    [0.0, 0.0, 1.0, 0.0],
    [0.0, 0.0, 0.0, 1.0]
],
  "dcmmeta_shape": [116, 116, 72, 218],
  "dcmmeta_slice_dim": 2,
  "dcmmeta_version": 0.6,
  "global": {
    "const": {
      "AcquisitionMatrix": [116, 0, 0, 116],
      "AngioFlag": "N",
      "BitsAllocated": 16,
      "BitsStored": 16,
      "BodyPartExamined": "HEAD",
      "Columns": 1044,
      "EchoNumbers": 1,
      "EchoTime": 30.0,
      "EchoTrainLength": 50,
      "FlipAngle": 81.0,
      "HighBit": 15,
      "ImageOrientationPatient": [0.99949205895016, -0.0063933471723, 0.03122097383974, 0.01046704960566, 0.99117903464081, -0.132115715042],
      "ImagePositionPatient": [-996.73755399066, -992.58375059942, 23.01972802777],
      "ImageType": [
        "ORIGINAL",
        "PRIMARY",
        "M",
        "MB",
        "ND",
        "MOSAIC"
],
      "ImagedNucleus": "1H",
      "ImagingFrequency": 123.2606,
      "InPlanePhaseEncodingDirection": "COL",
      "LargestImagePixelValue": 65535,
      "MRAcquisitionType": "2D",
      "MagneticFieldStrength": 3.0,
      "Manufacturer": "SIEMENS",
      "ManufacturerModelName": "Prisma",
      "Modality": "MR",
      "NumberOfAverages": 1.0,
      "NumberOfPhaseEncodingSteps": 101,
      "PercentPhaseFieldOfView": 100.0,
      "PercentSampling": 100.0,
      "PerformedProcedureStepStartTime": "164558.351000",
      "PhotometricInterpretation": "MONOCHROME2",
      "PixelBandwidth": 1435.0,
      "PixelRepresentation": 0,
      "PixelSpacing": [1.8965517282486, 1.8965517282486],
      "ProtocolName": "mbep2d_bold_MB3_learn6",
      "RepetitionTime": 2000.0,
      "Rows": 1044,
      "SAR": 0.05461288457981,
      "SamplesPerPixel": 1,
      "ScanOptions": [
        "PFP",
        "FS"
],
      "ScanningSequence": "EP",
      "SequenceName": "epfid2d1_116",
      "SequenceVariant": [
        "SK",
        "SS"
],
      "SeriesDescription": "mbep2d_bold_MB3_learn6",
      "SeriesNumber": 11,
      "SeriesTime": "174938.110000",
      "SliceLocation": -78.584337329153,
      "SliceThickness": 1.8999999761581,
      "SmallestImagePixelValue": 0,
      "SoftwareVersions": "syngo MR D13D",
      "SpacingBetweenSlices": 1.8999999857844,
      "SpecificCharacterSet": "ISO_IR 100",
      "StudyID": "1",
      "StudyTime": "164558.281000",
      "TimeOfLastCalibration": ["123723.000000", "123723.000000"],
      "TransmitCoilName": "Body",
      "VariableFlipAngleFlag": "N",
      "WindowCenterWidthExplanation": "Algo1",
      "dBdt": 0.0},
    "slices": {}
  },
  "time": {
    "samples": {
      "AcquisitionNumber": [1, 2, 3, 4, 5, 6, 7, 8, 9, 10, 11, 12, 13, 14, 15, 16, 17, 18, 19, 20, 21, 22, 23, 24, 25, 26, 27, 28, 29, 30, 31, 32, 33, 34, 35, 36, 37, 38, 39, 40, 41, 42, 43, 44, 45, 46, 47, 48, 49, 50, 51, 52, 53, 54, 55, 56, 57, 58, 59, 60, 61, 62, 63, 64, 65, 66, 67, 68, 69, 70, 71, 72, 73, 74, 75, 76, 77, 78, 79, 80, 81, 82, 83, 84, 85, 86, 87, 88, 89, 90, 91, 92, 93, 94, 95, 96, 97, 98, 99, 100, 101, 102, 103, 104, 105, 106, 107, 108, 109, 110, 111, 112, 113, 114, 115, 116, 117, 118, 119, 120, 121, 122, 123, 124, 125, 126, 127, 128, 129, 130, 131, 132, 133, 134, 135, 136, 137, 138, 139, 140, 141, 142, 143, 144, 145, 146, 147, 148, 149, 150, 151, 152, 153, 154, 155, 156, 157, 158, 159, 160, 161, 162, 163, 164, 165, 166, 167, 168, 169, 170, 171, 172, 173, 174, 175, 176, 177, 178, 179, 180, 181, 182, 183, 184, 185, 186, 187, 188, 189, 190, 191, 192, 193, 194, 195, 196, 197, 198, 199, 200, 201, 202, 203, 204, 205, 206, 207, 208, 209, 210, 211, 212, 213, 214, 215, 216, 217, 218],
      "AcquisitionTime": ["174922.697500", "174924.697500", "174926.697500", "174928.697500", "174930.697500", "174932.697500", "174934.697500", "174936.697500", "174938.697500", "174940.697500", "174942.697500", "174944.697500", "174946.697500", "174948.697500", "174950.697500", "174952.697500", "174954.697500", "174956.697500", "174958.697500", "175000.697500", "175002.697500", "175004.697500", "175006.697500", "175008.697500", "175010.697500", "175012.697500", "175014.697500", "175016.697500", "175018.697500", "175020.697500", "175022.697500", "175024.697500", "175026.697500", "175028.697500", "175030.697500", "175032.697500", "175034.697500", "175036.697500", "175038.697500", "175040.697500", "175042.697500", "175044.697500", "175046.697500", "175048.697500", "175050.697500", "175052.697500", "175054.697500", "175056.697500", "175058.697500", "175100.697500", "175102.697500", "175104.697500", "175106.697500", "175108.697500", "175110.697500", "175112.697500", "175114.697500", "175116.697500", "175118.697500", "175120.697500", "175122.697500", "175124.697500", "175126.697500", "175128.697500", "175130.697500", "175132.697500", "175134.697500", "175136.697500", "175138.697500", "175140.697500", "175142.697500", "175144.697500", "175146.697500", "175148.697500", "175150.697500", "175152.697500", "175154.697500", "175156.697500", "175158.697500", "175200.697500", "175202.697500", "175204.697500", "175206.697500", "175208.697500", "175210.697500", "175212.697500", "175214.697500", "175216.697500", "175218.697500", "175220.697500", "175222.697500", "175224.697500", "175226.697500", "175228.697500", "175230.697500", "175232.697500", "175234.697500", "175236.697500", "175238.697500", "175240.697500", "175242.697500", "175244.697500", "175246.697500", "175248.697500", "175250.697500", "175252.697500", "175254.697500", "175256.697500", "175258.697500", "175300.697500", "175302.697500", "175304.697500", "175306.697500", "175308.697500", "175310.697500", "175312.697500", "175314.697500", "175316.697500", "175318.697500", "175320.697500", "175322.697500", "175324.697500", "175326.697500", "175328.697500", "175330.697500", "175332.697500", "175334.697500", "175336.697500", "175338.697500", "175340.697500", "175342.697500", "175344.697500", "175346.697500", "175348.697500", "175350.697500", "175352.697500", "175354.697500", "175356.697500", "175358.697500", "175400.697500", "175402.697500", "175404.697500", "175406.697500", "175408.697500", "175410.697500", "175412.697500", "175414.697500", "175416.697500", "175418.697500", "175420.697500", "175422.697500", "175424.697500", "175426.697500", "175428.697500", "175430.697500", "175432.697500", "175434.697500", "175436.697500", "175438.697500", "175440.697500", "175442.697500", "175444.697500", "175446.697500", "175448.697500", "175450.697500", "175452.697500", "175454.697500", "175456.697500", "175458.697500", "175500.697500", "175502.697500", "175504.697500", "175506.697500", "175508.697500", "175510.697500", "175512.697500", "175514.697500", "175516.697500", "175518.697500", "175520.697500", "175522.697500", "175524.697500", "175526.697500", "175528.697500", "175530.697500", "175532.697500", "175534.697500", "175536.697500", "175538.697500", "175540.697500", "175542.700000", "175544.700000", "175546.700000", "175548.700000", "175550.700000", "175552.700000", "175554.700000", "175556.700000", "175558.700000", "175600.700000", "175602.700000", "175604.700000", "175606.700000", "175608.700000", "175610.700000", "175612.700000", "175614.700000", "175616.700000", "175618.700000", "175620.700000", "175622.700000", "175624.700000", "175626.700000", "175628.700000", "175630.700000", "175632.700000", "175634.700000", "175636.700000"],
      "ContentTime": ["174938.116000", "174939.110000", "174940.110000", "174940.114000", "174941.110000", "174942.110000", "174942.114000", "174943.112000", "174944.111000", "174945.110000", "174946.112000", "174948.112000", "174950.112000", "174952.112000", "174954.109000", "174956.111000", "174958.111000", "175000.111000", "175002.112000", "175004.112000", "175006.112000", "175008.112000", "175010.111000", "175012.110000", "175014.111000", "175016.112000", "175018.111000", "175020.112000", "175022.112000", "175024.113000", "175026.112000", "175028.112000", "175030.112000", "175032.111000", "175034.111000", "175036.111000", "175038.112000", "175040.112000", "175042.112000", "175044.112000", "175046.112000", "175048.111000", "175050.112000", "175052.111000", "175054.111000", "175056.112000", "175058.112000", "175100.112000", "175102.113000", "175104.110000", "175106.112000", "175108.111000", "175110.111000", "175112.112000", "175114.111000", "175116.111000", "175118.112000", "175120.112000", "175122.111000", "175124.111000", "175126.111000", "175128.112000", "175130.112000", "175132.112000", "175134.112000", "175136.112000", "175138.112000", "175140.111000", "175142.110000", "175144.111000", "175146.111000", "175148.112000", "175150.113000", "175152.111000", "175154.112000", "175156.112000", "175158.111000", "175200.117000", "175202.110000", "175204.112000", "175206.112000", "175208.112000", "175210.112000", "175212.112000", "175214.111000", "175216.112000", "175218.111000", "175220.111000", "175222.111000", "175224.111000", "175226.112000", "175228.112000", "175230.112000", "175232.111000", "175234.111000", "175236.111000", "175238.111000", "175240.112000", "175242.112000", "175244.112000", "175246.112000", "175248.112000", "175250.111000", "175252.111000", "175254.111000", "175256.111000", "175258.112000", "175300.112000", "175302.112000", "175304.113000", "175306.113000", "175308.111000", "175310.111000", "175312.111000", "175314.112000", "175316.112000", "175318.112000", "175320.112000", "175322.112000", "175324.110000", "175326.111000", "175328.112000", "175330.111000", "175332.112000", "175334.112000", "175336.112000", "175338.113000", "175340.113000", "175342.111000", "175344.111000", "175346.111000", "175348.111000", "175350.112000", "175352.112000", "175354.112000", "175356.112000", "175358.112000", "175400.111000", "175402.111000", "175404.111000", "175406.112000", "175408.112000", "175410.112000", "175412.112000", "175414.112000", "175416.112000", "175418.111000", "175420.111000", "175422.111000", "175424.112000", "175426.112000", "175428.112000", "175430.112000", "175432.112000", "175434.112000", "175436.111000", "175438.111000", "175440.112000", "175442.112000", "175444.112000", "175446.112000", "175448.112000", "175450.112000", "175452.111000", "175454.111000", "175456.112000", "175458.111000", "175500.112000", "175502.111000", "175504.111000", "175506.112000", "175508.113000", "175510.111000", "175512.111000", "175514.111000", "175516.112000", "175518.112000", "175520.112000", "175522.112000", "175524.113000", "175526.112000", "175528.111000", "175530.111000", "175532.111000", "175534.112000", "175536.112000", "175538.112000", "175540.112000", "175542.112000", "175544.111000", "175546.110000", "175548.111000", "175550.111000", "175552.111000", "175554.111000", "175556.112000", "175558.112000", "175600.111000", "175602.110000", "175604.110000", "175606.110000", "175608.110000", "175610.111000", "175612.112000", "175614.112000", "175616.110000", "175618.111000", "175620.111000", "175622.109000", "175624.109000", "175626.111000", "175628.110000", "175630.110000", "175632.111000", "175634.110000", "175636.110000", "175638.110000", "175639.695000"],
      "InstanceCreationTime": ["174938.116000", "174939.110000", "174940.110000", "174940.114000", "174941.110000", "174942.110000", "174942.114000", "174943.112000", "174944.111000", "174945.110000", "174946.112000", "174948.112000", "174950.112000", "174952.112000", "174954.109000", "174956.111000", "174958.111000", "175000.111000", "175002.112000", "175004.112000", "175006.112000", "175008.112000", "175010.111000", "175012.110000", "175014.111000", "175016.112000", "175018.111000", "175020.112000", "175022.112000", "175024.113000", "175026.112000", "175028.112000", "175030.112000", "175032.111000", "175034.111000", "175036.111000", "175038.112000", "175040.112000", "175042.112000", "175044.112000", "175046.112000", "175048.111000", "175050.112000", "175052.111000", "175054.111000", "175056.112000", "175058.112000", "175100.112000", "175102.113000", "175104.110000", "175106.112000", "175108.111000", "175110.111000", "175112.112000", "175114.111000", "175116.111000", "175118.112000", "175120.112000", "175122.111000", "175124.111000", "175126.111000", "175128.112000", "175130.112000", "175132.112000", "175134.112000", "175136.112000", "175138.112000", "175140.111000", "175142.110000", "175144.111000", "175146.111000", "175148.112000", "175150.113000", "175152.111000", "175154.112000", "175156.112000", "175158.111000", "175200.117000", "175202.110000", "175204.112000", "175206.112000", "175208.112000", "175210.112000", "175212.112000", "175214.111000", "175216.112000", "175218.111000", "175220.111000", "175222.111000", "175224.111000", "175226.112000", "175228.112000", "175230.112000", "175232.111000", "175234.111000", "175236.111000", "175238.111000", "175240.112000", "175242.112000", "175244.112000", "175246.112000", "175248.112000", "175250.111000", "175252.111000", "175254.111000", "175256.111000", "175258.112000", "175300.112000", "175302.112000", "175304.113000", "175306.113000", "175308.111000", "175310.111000", "175312.111000", "175314.112000", "175316.112000", "175318.112000", "175320.112000", "175322.112000", "175324.110000", "175326.111000", "175328.112000", "175330.111000", "175332.112000", "175334.112000", "175336.112000", "175338.113000", "175340.113000", "175342.111000", "175344.111000", "175346.111000", "175348.111000", "175350.112000", "175352.112000", "175354.112000", "175356.112000", "175358.112000", "175400.111000", "175402.111000", "175404.111000", "175406.112000", "175408.112000", "175410.112000", "175412.112000", "175414.112000", "175416.112000", "175418.111000", "175420.111000", "175422.111000", "175424.112000", "175426.112000", "175428.112000", "175430.112000", "175432.112000", "175434.112000", "175436.111000", "175438.111000", "175440.112000", "175442.112000", "175444.112000", "175446.112000", "175448.112000", "175450.112000", "175452.111000", "175454.111000", "175456.112000", "175458.111000", "175500.112000", "175502.111000", "175504.111000", "175506.112000", "175508.113000", "175510.111000", "175512.111000", "175514.111000", "175516.112000", "175518.112000", "175520.112000", "175522.112000", "175524.113000", "175526.112000", "175528.111000", "175530.111000", "175532.111000", "175534.112000", "175536.112000", "175538.112000", "175540.112000", "175542.112000", "175544.111000", "175546.110000", "175548.111000", "175550.111000", "175552.111000", "175554.111000", "175556.112000", "175558.112000", "175600.111000", "175602.110000", "175604.110000", "175606.110000", "175608.110000", "175610.111000", "175612.112000", "175614.112000", "175616.110000", "175618.111000", "175620.111000", "175622.109000", "175624.109000", "175626.111000", "175628.110000", "175630.110000", "175632.111000", "175634.110000", "175636.110000", "175638.110000", "175639.695000"],
      "InstanceNumber": [1, 2, 3, 4, 5, 6, 7, 8, 9, 10, 11, 12, 13, 14, 15, 16, 17, 18, 19, 20, 21, 22, 23, 24, 25, 26, 27, 28, 29, 30, 31, 32, 33, 34, 35, 36, 37, 38, 39, 40, 41, 42, 43, 44, 45, 46, 47, 48, 49, 50, 51, 52, 53, 54, 55, 56, 57, 58, 59, 60, 61, 62, 63, 64, 65, 66, 67, 68, 69, 70, 71, 72, 73, 74, 75, 76, 77, 78, 79, 80, 81, 82, 83, 84, 85, 86, 87, 88, 89, 90, 91, 92, 93, 94, 95, 96, 97, 98, 99, 100, 101, 102, 103, 104, 105, 106, 107, 108, 109, 110, 111, 112, 113, 114, 115, 116, 117, 118, 119, 120, 121, 122, 123, 124, 125, 126, 127, 128, 129, 130, 131, 132, 133, 134, 135, 136, 137, 138, 139, 140, 141, 142, 143, 144, 145, 146, 147, 148, 149, 150, 151, 152, 153, 154, 155, 156, 157, 158, 159, 160, 161, 162, 163, 164, 165, 166, 167, 168, 169, 170, 171, 172, 173, 174, 175, 176, 177, 178, 179, 180, 181, 182, 183, 184, 185, 186, 187, 188, 189, 190, 191, 192, 193, 194, 195, 196, 197, 198, 199, 200, 201, 202, 203, 204, 205, 206, 207, 208, 209, 210, 211, 212, 213, 214, 215, 216, 217, 218],
      "WindowCenter": [15450.0, 15441.0, 15423.0, 15450.0, 15423.0, 15444.0, 15407.0, 15422.0, 15417.0, 15409.0, 15427.0, 15424.0, 15398.0, 15392.0, 15399.0, 15408.0, 15425.0, 15405.0, 15412.0, 15394.0, 15396.0, 15423.0, 15389.0, 15418.0, 15416.0, 15414.0, 15430.0, 15395.0, 15404.0, 15412.0, 15416.0, 15428.0, 15409.0, 15417.0, 15422.0, 15404.0, 15421.0, 15414.0, 15426.0, 15418.0, 15427.0, 15416.0, 15421.0, 15402.0, 15418.0, 15427.0, 15433.0, 15416.0, 15415.0, 15425.0, 15423.0, 15422.0, 15445.0, 15436.0, 15426.0, 15415.0, 15411.0, 15446.0, 15434.0, 15432.0, 15419.0, 15412.0, 15421.0, 15423.0, 15439.0, 15436.0, 15421.0, 15428.0, 15441.0, 15418.0, 15448.0, 15410.0, 15420.0, 15436.0, 15426.0, 15448.0, 15457.0, 15435.0, 15434.0, 15441.0, 15458.0, 15454.0, 15434.0, 15436.0, 15442.0, 15446.0, 15442.0, 15438.0, 15427.0, 15438.0, 15437.0, 15450.0, 15433.0, 15422.0, 15423.0, 15431.0, 15427.0, 15442.0, 15440.0, 15424.0, 15422.0, 15438.0, 15448.0, 15433.0, 15451.0, 15422.0, 15446.0, 15429.0, 15460.0, 15445.0, 15431.0, 15438.0, 15428.0, 15457.0, 15451.0, 15449.0, 15439.0, 15419.0, 15445.0, 15430.0, 15436.0, 15452.0, 15435.0, 15443.0, 15446.0, 15433.0, 15437.0, 15435.0, 15451.0, 15430.0, 15436.0, 15434.0, 15431.0, 15416.0, 15424.0, 15439.0, 15446.0, 15431.0, 15440.0, 15464.0, 15445.0, 15430.0, 15452.0, 15449.0, 15460.0, 15441.0, 15441.0, 15439.0, 15449.0, 15430.0, 15424.0, 15429.0, 15443.0, 15453.0, 15448.0, 15437.0, 15430.0, 15458.0, 15437.0, 15438.0, 15457.0, 15439.0, 15453.0, 15433.0, 15452.0, 15431.0, 15436.0, 15450.0, 15453.0, 15449.0, 15443.0, 15444.0, 15450.0, 15443.0, 15449.0, 15467.0, 15464.0, 15445.0, 15445.0, 15435.0, 15436.0, 15452.0, 15458.0, 15457.0, 15468.0, 15455.0, 15444.0, 15444.0, 15449.0, 15445.0, 15443.0, 15448.0, 15452.0, 15441.0, 15434.0, 15456.0, 15425.0, 15433.0, 15431.0, 15438.0, 15426.0, 15435.0, 15426.0, 15437.0, 15431.0, 15422.0, 15416.0, 15422.0, 15426.0, 15420.0, 15419.0, 15426.0, 15435.0, 15421.0, 15416.0, 15424.0, 15439.0, 15404.0],
      "WindowWidth": [46950.0, 46886.0, 46899.0, 46851.0, 46800.0, 46732.0, 46787.0, 46840.0, 46823.0, 46801.0, 46731.0, 46730.0, 46767.0, 46818.0, 46823.0, 46785.0, 46729.0, 46732.0, 46791.0, 46821.0, 46821.0, 46744.0, 46746.0, 46782.0, 46824.0, 46822.0, 46751.0, 46737.0, 46788.0, 46822.0, 46838.0, 46834.0, 46847.0, 46839.0, 46829.0, 46829.0, 46829.0, 46851.0, 46844.0, 46783.0, 46777.0, 46796.0, 46756.0, 46756.0, 46797.0, 46793.0, 46781.0, 46755.0, 46782.0, 46764.0, 46761.0, 46774.0, 46709.0, 46702.0, 46737.0, 46826.0, 46808.0, 46751.0, 46756.0, 46781.0, 46772.0, 46766.0, 46775.0, 46832.0, 46844.0, 46827.0, 46814.0, 46805.0, 46790.0, 46798.0, 46739.0, 46782.0, 46814.0, 46814.0, 46834.0, 46835.0, 46801.0, 46799.0, 46810.0, 46802.0, 46775.0, 46745.0, 46797.0, 46812.0, 46819.0, 46810.0, 46805.0, 46817.0, 46864.0, 46844.0, 46857.0, 46840.0, 46838.0, 46789.0, 46821.0, 46939.0, 46889.0, 46773.0, 46759.0, 46776.0, 46775.0, 46773.0, 46780.0, 46782.0, 46728.0, 46776.0, 46823.0, 46852.0, 46846.0, 46820.0, 46810.0, 46829.0, 46893.0, 46915.0, 46881.0, 46823.0, 46817.0, 46858.0, 46876.0, 46865.0, 46853.0, 46810.0, 46810.0, 46776.0, 46780.0, 46810.0, 46756.0, 46725.0, 46710.0, 46692.0, 46656.0, 46656.0, 46738.0, 46809.0, 46757.0, 46699.0, 46651.0, 46708.0, 46702.0, 46664.0, 46678.0, 46709.0, 46741.0, 46739.0, 46688.0, 46702.0, 46730.0, 46756.0, 46765.0, 46750.0, 46745.0, 46763.0, 46748.0, 46741.0, 46737.0, 46742.0, 46736.0, 46745.0, 46772.0, 46813.0, 46730.0, 46702.0, 46712.0, 46681.0, 46682.0, 46737.0, 46769.0, 46765.0, 46740.0, 46721.0, 46674.0, 46689.0, 46738.0, 46762.0, 46779.0, 46750.0, 46705.0, 46663.0, 46690.0, 46782.0, 46839.0, 46837.0, 46801.0, 46786.0, 46793.0, 46797.0, 46788.0, 46774.0, 46762.0, 46761.0, 46774.0, 46776.0, 46724.0, 46733.0, 46781.0, 46756.0, 46731.0, 46736.0, 46734.0, 46712.0, 46716.0, 46737.0, 46745.0, 46725.0, 46693.0, 46701.0, 46779.0, 46785.0, 46745.0, 46698.0, 46739.0, 46745.0, 46725.0, 46727.0, 46724.0, 46730.0, 46743.0, 46772.0]
    },
    "slices": {}
  }
}