{
  "AcquisitionMatrixPE": 116,
  "AcquisitionNumber": 1,
  "AcquisitionTime": "17:06:26.522500",
  "BandwidthPerPixelPhaseEncode": 18.539,
  "BaseResolution": 116,
  "BodyPartExamined": "HEAD",
  "ConsistencyInfo": "N4_VD13D_LATEST_20130810",
  "ConversionSoftware": "dcm2niix",
  "ConversionSoftwareVersion": "v1.0.20190410  (JP2:OpenJPEG) (JP-LS:CharLS) GCC5.5.0",
  "DerivedVendorReportedEchoSpacing": 0.000930006,
  "DeviceSerialNumber": "66014",
  "DwellTime": 3e-06,
  "EchoTime": 0.03,
  "EchoTrainLength": 50,
  "EffectiveEchoSpacing": 0.000465003,
  "FlipAngle": 81,
  "ImageComments": "Unaliased_MB3_PE4",
  "ImageOrientationPatientDICOM": [0.999492, -0.00639335, 0.031221, 0.010467, 0.991179, -0.132116],
  "ImageType": [
    "ORIGINAL",
    "PRIMARY",
    "M",
    "MB",
    "ND",
    "MOSAIC"
],
  "ImagingFrequency": 123.261,
  "InPlanePhaseEncodingDirectionDICOM": "COL",
  "InstitutionAddress": "Yiheyuan_Road_5_Beijing_Haidian_CN_100871",
  "InstitutionName": "Peking_Univeristy",
  "InstitutionalDepartmentName": "Department",
  "MRAcquisitionType": "2D",
  "MagneticFieldStrength": 3,
  "Manufacturer": "Siemens",
  "ManufacturersModelName": "Prisma",
  "Modality": "MR",
  "MultibandAccelerationFactor": 3,
  "ParallelReductionFactorInPlane": 2,
  "PartialFourier": 0.875,
  "PatientPosition": "HFS",
  "PercentPhaseFOV": 100,
  "PhaseEncodingDirection": "j-",
  "PhaseEncodingSteps": 101,
  "PhaseResolution": 1,
  "PixelBandwidth": 1435,
  "ProcedureStepDescription": "Research_Projects_64CH",
  "ProtocolName": "mbep2d_bold_MB3_learn1",
  "PulseSequenceDetails": "%CustomerSeq%_cmrr_mbep2d_bold",
  "ReceiveCoilActiveElements": "HC1-7",
  "ReceiveCoilName": "HeadNeck_64",
  "ReconMatrixPE": 116,
  "RefLinesPE": 44,
  "RepetitionTime": 2,
  "SAR": 0.0546129,
  "ScanOptions": "PFP_FS",
  "ScanningSequence": "EP",
  "SequenceName": "epfid2d1_116",
  "SequenceVariant": "SK_SS",
  "SeriesDescription": "mbep2d_bold_MB3_learn1",
  "SeriesNumber": 6,
  "ShimSetting": [-3448, -2081, -1990, 401, -1, -182, -44, -10],
  "SliceThickness": 1.9,
  "SliceTiming": [0, 0.9075, 1.815, 0.7425, 1.65, 0.5775, 1.485, 0.4125, 1.32, 0.2475, 1.155, 0.0825, 0.99, 1.8975, 0.825, 1.7325, 0.66, 1.5675, 0.495, 1.4025, 0.33, 1.2375, 0.165, 1.0725, 0, 0.9075, 1.815, 0.7425, 1.65, 0.5775, 1.485, 0.4125, 1.32, 0.2475, 1.155, 0.0825, 0.99, 1.8975, 0.825, 1.7325, 0.66, 1.5675, 0.495, 1.4025, 0.33, 1.2375, 0.165, 1.0725, 0, 0.9075, 1.815, 0.7425, 1.65, 0.5775, 1.485, 0.4125, 1.32, 0.2475, 1.155, 0.0825, 0.99, 1.8975, 0.825, 1.7325, 0.66, 1.5675, 0.495, 1.4025, 0.33, 1.2375, 0.165, 1.0725],
  "SoftwareVersions": "syngo_MR_D13D",
  "SpacingBetweenSlices": 1.9,
  "StationName": "AWP66014",
  "TaskName": "updating",
  "TotalReadoutTime": 0.0534753,
  "TxRefAmp": 217.913,
  "WipMemBlock": "f7bd3c5c-8f95-4bcf-acc1-bb92e48c3294||Sequence: vd13d/master r/0735857; Nov 19 2014 09:21:40 by eja",
  "dcmmeta_affine": [
    [-1.8955883979797363, 0.01985130086541176, 0.05719173327088356, 105.69063568115234],
    [0.01212531328201294, 1.8798222541809082, -0.2515132427215576, -90.20722198486328],
    [0.05921219289302826, 0.2505642771720886, 1.8824107646942139, -94.58253479003906],
    [0.0, 0.0, 0.0, 1.0]
],
  "dcmmeta_reorient_transform": [
    [0.0, -1.0, 0.0, 115.0],
    [1.0, 0.0, 0.0, 0.0],
    [0.0, 0.0, 1.0, 0.0],
    [0.0, 0.0, 0.0, 1.0]
],
  "dcmmeta_shape": [116, 116, 72, 218],
  "dcmmeta_slice_dim": 2,
  "dcmmeta_version": 0.6,
  "global": {
    "const": {
      "AcquisitionMatrix": [116, 0, 0, 116],
      "AngioFlag": "N",
      "BitsAllocated": 16,
      "BitsStored": 16,
      "BodyPartExamined": "HEAD",
      "Columns": 1044,
      "EchoNumbers": 1,
      "EchoTime": 30.0,
      "EchoTrainLength": 50,
      "FlipAngle": 81.0,
      "HighBit": 15,
      "ImageOrientationPatient": [0.99949205895016, -0.0063933471723, 0.03122097383974, 0.01046704960566, 0.99117903464081, -0.132115715042],
      "ImagePositionPatient": [-996.73755399066, -992.58375059942, 23.01972802777],
      "ImageType": [
        "ORIGINAL",
        "PRIMARY",
        "M",
        "MB",
        "ND",
        "MOSAIC"
],
      "ImagedNucleus": "1H",
      "ImagingFrequency": 123.260597,
      "InPlanePhaseEncodingDirection": "COL",
      "LargestImagePixelValue": 65535,
      "MRAcquisitionType": "2D",
      "MagneticFieldStrength": 3.0,
      "Manufacturer": "SIEMENS",
      "ManufacturerModelName": "Prisma",
      "Modality": "MR",
      "NumberOfAverages": 1.0,
      "NumberOfPhaseEncodingSteps": 101,
      "PercentPhaseFieldOfView": 100.0,
      "PercentSampling": 100.0,
      "PerformedProcedureStepStartTime": "164558.351000",
      "PhotometricInterpretation": "MONOCHROME2",
      "PixelBandwidth": 1435.0,
      "PixelRepresentation": 0,
      "PixelSpacing": [1.8965517282486, 1.8965517282486],
      "ProtocolName": "mbep2d_bold_MB3_learn1",
      "RepetitionTime": 2000.0,
      "Rows": 1044,
      "SAR": 0.05461288457398,
      "SamplesPerPixel": 1,
      "ScanOptions": [
        "PFP",
        "FS"
],
      "ScanningSequence": "EP",
      "SequenceName": "epfid2d1_116",
      "SequenceVariant": [
        "SK",
        "SS"
],
      "SeriesDescription": "mbep2d_bold_MB3_learn1",
      "SeriesNumber": 6,
      "SeriesTime": "170642.215000",
      "SliceLocation": -78.584337329153,
      "SliceThickness": 1.8999999761581,
      "SmallestImagePixelValue": 0,
      "SoftwareVersions": "syngo MR D13D",
      "SpacingBetweenSlices": 1.8999999857844,
      "SpecificCharacterSet": "ISO_IR 100",
      "StudyID": "1",
      "StudyTime": "164558.281000",
      "TimeOfLastCalibration": ["123723.000000", "123723.000000"],
      "TransmitCoilName": "Body",
      "VariableFlipAngleFlag": "N",
      "WindowCenterWidthExplanation": "Algo1",
      "dBdt": 0.0},
    "slices": {}
  },
  "time": {
    "samples": {
      "AcquisitionNumber": [1, 2, 3, 4, 5, 6, 7, 8, 9, 10, 11, 12, 13, 14, 15, 16, 17, 18, 19, 20, 21, 22, 23, 24, 25, 26, 27, 28, 29, 30, 31, 32, 33, 34, 35, 36, 37, 38, 39, 40, 41, 42, 43, 44, 45, 46, 47, 48, 49, 50, 51, 52, 53, 54, 55, 56, 57, 58, 59, 60, 61, 62, 63, 64, 65, 66, 67, 68, 69, 70, 71, 72, 73, 74, 75, 76, 77, 78, 79, 80, 81, 82, 83, 84, 85, 86, 87, 88, 89, 90, 91, 92, 93, 94, 95, 96, 97, 98, 99, 100, 101, 102, 103, 104, 105, 106, 107, 108, 109, 110, 111, 112, 113, 114, 115, 116, 117, 118, 119, 120, 121, 122, 123, 124, 125, 126, 127, 128, 129, 130, 131, 132, 133, 134, 135, 136, 137, 138, 139, 140, 141, 142, 143, 144, 145, 146, 147, 148, 149, 150, 151, 152, 153, 154, 155, 156, 157, 158, 159, 160, 161, 162, 163, 164, 165, 166, 167, 168, 169, 170, 171, 172, 173, 174, 175, 176, 177, 178, 179, 180, 181, 182, 183, 184, 185, 186, 187, 188, 189, 190, 191, 192, 193, 194, 195, 196, 197, 198, 199, 200, 201, 202, 203, 204, 205, 206, 207, 208, 209, 210, 211, 212, 213, 214, 215, 216, 217, 218],
      "AcquisitionTime": ["170626.522500", "170628.522500", "170630.522500", "170632.522500", "170634.522500", "170636.522500", "170638.522500", "170640.522500", "170642.522500", "170644.522500", "170646.522500", "170648.522500", "170650.522500", "170652.522500", "170654.522500", "170656.522500", "170658.522500", "170700.522500", "170702.522500", "170704.522500", "170706.522500", "170708.522500", "170710.522500", "170712.522500", "170714.522500", "170716.522500", "170718.522500", "170720.522500", "170722.522500", "170724.522500", "170726.522500", "170728.522500", "170730.522500", "170732.522500", "170734.522500", "170736.522500", "170738.522500", "170740.522500", "170742.522500", "170744.522500", "170746.522500", "170748.522500", "170750.522500", "170752.522500", "170754.522500", "170756.522500", "170758.522500", "170800.522500", "170802.522500", "170804.522500", "170806.522500", "170808.522500", "170810.522500", "170812.522500", "170814.522500", "170816.522500", "170818.522500", "170820.522500", "170822.522500", "170824.522500", "170826.522500", "170828.522500", "170830.522500", "170832.522500", "170834.522500", "170836.522500", "170838.522500", "170840.522500", "170842.522500", "170844.522500", "170846.522500", "170848.522500", "170850.522500", "170852.522500", "170854.522500", "170856.522500", "170858.522500", "170900.522500", "170902.522500", "170904.522500", "170906.522500", "170908.522500", "170910.522500", "170912.522500", "170914.522500", "170916.522500", "170918.522500", "170920.522500", "170922.522500", "170924.522500", "170926.522500", "170928.522500", "170930.522500", "170932.522500", "170934.522500", "170936.522500", "170938.522500", "170940.522500", "170942.522500", "170944.522500", "170946.522500", "170948.522500", "170950.522500", "170952.522500", "170954.525000", "170956.525000", "170958.525000", "171000.525000", "171002.525000", "171004.525000", "171006.525000", "171008.525000", "171010.525000", "171012.525000", "171014.525000", "171016.525000", "171018.525000", "171020.525000", "171022.525000", "171024.525000", "171026.525000", "171028.525000", "171030.525000", "171032.525000", "171034.525000", "171036.525000", "171038.525000", "171040.525000", "171042.525000", "171044.525000", "171046.525000", "171048.525000", "171050.525000", "171052.525000", "171054.525000", "171056.525000", "171058.525000", "171100.525000", "171102.525000", "171104.525000", "171106.525000", "171108.525000", "171110.525000", "171112.525000", "171114.525000", "171116.525000", "171118.525000", "171120.525000", "171122.525000", "171124.525000", "171126.525000", "171128.525000", "171130.525000", "171132.525000", "171134.525000", "171136.525000", "171138.525000", "171140.525000", "171142.525000", "171144.525000", "171146.525000", "171148.525000", "171150.525000", "171152.525000", "171154.525000", "171156.525000", "171158.525000", "171200.525000", "171202.525000", "171204.525000", "171206.525000", "171208.525000", "171210.525000", "171212.525000", "171214.525000", "171216.525000", "171218.525000", "171220.525000", "171222.525000", "171224.525000", "171226.525000", "171228.525000", "171230.525000", "171232.525000", "171234.525000", "171236.525000", "171238.525000", "171240.525000", "171242.525000", "171244.525000", "171246.525000", "171248.525000", "171250.525000", "171252.525000", "171254.525000", "171256.525000", "171258.525000", "171300.525000", "171302.525000", "171304.525000", "171306.525000", "171308.525000", "171310.525000", "171312.525000", "171314.525000", "171316.525000", "171318.525000", "171320.525000", "171322.525000", "171324.525000", "171326.525000", "171328.525000", "171330.525000", "171332.525000", "171334.525000", "171336.525000", "171338.525000", "171340.525000"],
      "ContentTime": ["170642.221000", "170643.213000", "170644.214000", "170644.219000", "170645.713000", "170645.717000", "170646.713000", "170647.713000", "170648.713000", "170648.717000", "170650.214000", "170651.714000", "170653.713000", "170655.714000", "170657.714000", "170659.714000", "170701.714000", "170703.714000", "170705.714000", "170707.714000", "170709.713000", "170711.715000", "170713.713000", "170715.714000", "170717.714000", "170719.715000", "170721.714000", "170723.713000", "170725.715000", "170727.715000", "170729.714000", "170731.714000", "170733.713000", "170735.714000", "170737.715000", "170739.713000", "170741.714000", "170743.714000", "170745.714000", "170747.714000", "170749.714000", "170751.713000", "170753.712000", "170755.715000", "170757.714000", "170759.714000", "170801.714000", "170803.713000", "170805.714000", "170807.714000", "170809.715000", "170811.714000", "170813.713000", "170815.714000", "170817.714000", "170819.715000", "170821.715000", "170823.715000", "170825.714000", "170827.714000", "170829.712000", "170831.714000", "170833.712000", "170835.715000", "170837.714000", "170839.715000", "170841.714000", "170843.712000", "170845.714000", "170847.714000", "170849.714000", "170851.714000", "170853.712000", "170855.712000", "170857.714000", "170859.714000", "170901.714000", "170903.714000", "170905.714000", "170907.714000", "170909.714000", "170911.714000", "170913.714000", "170915.715000", "170917.714000", "170919.715000", "170921.714000", "170923.713000", "170925.714000", "170927.713000", "170929.715000", "170931.715000", "170933.714000", "170935.714000", "170937.714000", "170939.714000", "170941.714000", "170943.715000", "170945.713000", "170947.714000", "170949.714000", "170951.714000", "170953.714000", "170955.713000", "170957.714000", "170959.714000", "171001.714000", "171003.714000", "171005.714000", "171007.714000", "171009.714000", "171011.714000", "171013.734000", "171015.714000", "171017.713000", "171019.714000", "171021.714000", "171023.714000", "171025.714000", "171027.714000", "171029.714000", "171031.714000", "171033.713000", "171035.715000", "171037.714000", "171039.714000", "171041.715000", "171043.714000", "171045.714000", "171047.714000", "171049.715000", "171051.714000", "171053.721000", "171055.715000", "171057.713000", "171059.714000", "171101.714000", "171103.712000", "171105.714000", "171107.714000", "171109.714000", "171111.714000", "171113.713000", "171115.713000", "171117.714000", "171119.714000", "171121.714000", "171123.712000", "171125.714000", "171127.715000", "171129.714000", "171131.714000", "171133.714000", "171135.714000", "171137.715000", "171139.715000", "171141.714000", "171143.714000", "171145.713000", "171147.714000", "171149.714000", "171151.714000", "171153.713000", "171155.714000", "171157.713000", "171159.713000", "171201.714000", "171203.714000", "171205.713000", "171207.713000", "171209.713000", "171211.714000", "171213.713000", "171215.714000", "171217.715000", "171219.714000", "171221.715000", "171223.714000", "171225.714000", "171227.714000", "171229.714000", "171231.716000", "171233.714000", "171235.713000", "171237.714000", "171239.715000", "171241.714000", "171243.714000", "171245.714000", "171247.714000", "171249.713000", "171251.714000", "171253.713000", "171255.714000", "171257.713000", "171259.713000", "171301.715000", "171303.714000", "171305.714000", "171307.714000", "171309.714000", "171311.715000", "171313.714000", "171315.714000", "171317.714000", "171319.714000", "171321.714000", "171323.713000", "171325.714000", "171327.714000", "171329.714000", "171331.714000", "171333.712000", "171335.714000", "171337.714000", "171339.715000", "171341.714000", "171343.587000"],
      "InstanceCreationTime": ["170642.221000", "170643.213000", "170644.214000", "170644.219000", "170645.713000", "170645.717000", "170646.713000", "170647.713000", "170648.713000", "170648.717000", "170650.214000", "170651.714000", "170653.713000", "170655.714000", "170657.714000", "170659.714000", "170701.714000", "170703.714000", "170705.714000", "170707.714000", "170709.713000", "170711.715000", "170713.713000", "170715.714000", "170717.714000", "170719.715000", "170721.714000", "170723.713000", "170725.715000", "170727.715000", "170729.714000", "170731.714000", "170733.713000", "170735.714000", "170737.715000", "170739.713000", "170741.714000", "170743.714000", "170745.714000", "170747.714000", "170749.714000", "170751.713000", "170753.712000", "170755.715000", "170757.714000", "170759.714000", "170801.714000", "170803.713000", "170805.714000", "170807.714000", "170809.715000", "170811.714000", "170813.713000", "170815.714000", "170817.714000", "170819.715000", "170821.715000", "170823.715000", "170825.714000", "170827.714000", "170829.712000", "170831.714000", "170833.712000", "170835.715000", "170837.714000", "170839.715000", "170841.714000", "170843.712000", "170845.714000", "170847.714000", "170849.714000", "170851.714000", "170853.712000", "170855.712000", "170857.714000", "170859.714000", "170901.714000", "170903.714000", "170905.714000", "170907.714000", "170909.714000", "170911.714000", "170913.714000", "170915.715000", "170917.714000", "170919.715000", "170921.714000", "170923.713000", "170925.714000", "170927.713000", "170929.715000", "170931.715000", "170933.714000", "170935.714000", "170937.714000", "170939.714000", "170941.714000", "170943.715000", "170945.713000", "170947.714000", "170949.714000", "170951.714000", "170953.714000", "170955.713000", "170957.714000", "170959.714000", "171001.714000", "171003.714000", "171005.714000", "171007.714000", "171009.714000", "171011.714000", "171013.734000", "171015.714000", "171017.713000", "171019.714000", "171021.714000", "171023.714000", "171025.714000", "171027.714000", "171029.714000", "171031.714000", "171033.713000", "171035.715000", "171037.714000", "171039.714000", "171041.715000", "171043.714000", "171045.714000", "171047.714000", "171049.715000", "171051.714000", "171053.721000", "171055.715000", "171057.713000", "171059.714000", "171101.714000", "171103.712000", "171105.714000", "171107.714000", "171109.714000", "171111.714000", "171113.713000", "171115.713000", "171117.714000", "171119.714000", "171121.714000", "171123.712000", "171125.714000", "171127.715000", "171129.714000", "171131.714000", "171133.714000", "171135.714000", "171137.715000", "171139.715000", "171141.714000", "171143.714000", "171145.713000", "171147.714000", "171149.714000", "171151.714000", "171153.713000", "171155.714000", "171157.713000", "171159.713000", "171201.714000", "171203.714000", "171205.713000", "171207.713000", "171209.713000", "171211.714000", "171213.713000", "171215.714000", "171217.715000", "171219.714000", "171221.715000", "171223.714000", "171225.714000", "171227.714000", "171229.714000", "171231.716000", "171233.714000", "171235.713000", "171237.714000", "171239.715000", "171241.714000", "171243.714000", "171245.714000", "171247.714000", "171249.713000", "171251.714000", "171253.713000", "171255.714000", "171257.713000", "171259.713000", "171301.715000", "171303.714000", "171305.714000", "171307.714000", "171309.714000", "171311.715000", "171313.714000", "171315.714000", "171317.714000", "171319.714000", "171321.714000", "171323.713000", "171325.714000", "171327.714000", "171329.714000", "171331.714000", "171333.712000", "171335.714000", "171337.714000", "171339.715000", "171341.714000", "171343.587000"],
      "InstanceNumber": [1, 2, 3, 4, 5, 6, 7, 8, 9, 10, 11, 12, 13, 14, 15, 16, 17, 18, 19, 20, 21, 22, 23, 24, 25, 26, 27, 28, 29, 30, 31, 32, 33, 34, 35, 36, 37, 38, 39, 40, 41, 42, 43, 44, 45, 46, 47, 48, 49, 50, 51, 52, 53, 54, 55, 56, 57, 58, 59, 60, 61, 62, 63, 64, 65, 66, 67, 68, 69, 70, 71, 72, 73, 74, 75, 76, 77, 78, 79, 80, 81, 82, 83, 84, 85, 86, 87, 88, 89, 90, 91, 92, 93, 94, 95, 96, 97, 98, 99, 100, 101, 102, 103, 104, 105, 106, 107, 108, 109, 110, 111, 112, 113, 114, 115, 116, 117, 118, 119, 120, 121, 122, 123, 124, 125, 126, 127, 128, 129, 130, 131, 132, 133, 134, 135, 136, 137, 138, 139, 140, 141, 142, 143, 144, 145, 146, 147, 148, 149, 150, 151, 152, 153, 154, 155, 156, 157, 158, 159, 160, 161, 162, 163, 164, 165, 166, 167, 168, 169, 170, 171, 172, 173, 174, 175, 176, 177, 178, 179, 180, 181, 182, 183, 184, 185, 186, 187, 188, 189, 190, 191, 192, 193, 194, 195, 196, 197, 198, 199, 200, 201, 202, 203, 204, 205, 206, 207, 208, 209, 210, 211, 212, 213, 214, 215, 216, 217, 218],
      "WindowCenter": [15350.0, 15332.0, 15330.0, 15349.0, 15337.0, 15337.0, 15336.0, 15320.0, 15322.0, 15300.0, 15311.0, 15319.0, 15322.0, 15308.0, 15304.0, 15304.0, 15284.0, 15277.0, 15299.0, 15281.0, 15283.0, 15297.0, 15277.0, 15257.0, 15260.0, 15269.0, 15280.0, 15276.0, 15282.0, 15260.0, 15299.0, 15264.0, 15281.0, 15287.0, 15284.0, 15278.0, 15274.0, 15275.0, 15275.0, 15273.0, 15260.0, 15272.0, 15292.0, 15295.0, 15292.0, 15286.0, 15281.0, 15292.0, 15272.0, 15275.0, 15280.0, 15285.0, 15289.0, 15293.0, 15288.0, 15291.0, 15286.0, 15303.0, 15271.0, 15277.0, 15278.0, 15286.0, 15268.0, 15296.0, 15282.0, 15273.0, 15278.0, 15282.0, 15275.0, 15266.0, 15260.0, 15288.0, 15278.0, 15278.0, 15269.0, 15266.0, 15275.0, 15261.0, 15267.0, 15286.0, 15278.0, 15287.0, 15271.0, 15289.0, 15258.0, 15277.0, 15279.0, 15285.0, 15267.0, 15255.0, 15265.0, 15274.0, 15285.0, 15279.0, 15280.0, 15266.0, 15262.0, 15255.0, 15285.0, 15264.0, 15273.0, 15271.0, 15252.0, 15270.0, 15271.0, 15273.0, 15253.0, 15263.0, 15258.0, 15267.0, 15265.0, 15278.0, 15260.0, 15274.0, 15265.0, 15271.0, 15274.0, 15278.0, 15278.0, 15267.0, 15277.0, 15257.0, 15269.0, 15268.0, 15278.0, 15280.0, 15275.0, 15282.0, 15266.0, 15266.0, 15269.0, 15286.0, 15267.0, 15272.0, 15277.0, 15275.0, 15283.0, 15278.0, 15272.0, 15280.0, 15250.0, 15261.0, 15266.0, 15267.0, 15274.0, 15268.0, 15270.0, 15270.0, 15282.0, 15267.0, 15276.0, 15286.0, 15266.0, 15266.0, 15262.0, 15258.0, 15273.0, 15285.0, 15284.0, 15277.0, 15249.0, 15266.0, 15260.0, 15281.0, 15292.0, 15264.0, 15282.0, 15260.0, 15280.0, 15272.0, 15277.0, 15281.0, 15259.0, 15284.0, 15271.0, 15281.0, 15273.0, 15264.0, 15271.0, 15268.0, 15268.0, 15275.0, 15270.0, 15272.0, 15280.0, 15278.0, 15275.0, 15279.0, 15275.0, 15275.0, 15279.0, 15275.0, 15263.0, 15268.0, 15267.0, 15273.0, 15260.0, 15250.0, 15267.0, 15259.0, 15271.0, 15252.0, 15278.0, 15279.0, 15282.0, 15274.0, 15276.0, 15267.0, 15293.0, 15270.0, 15274.0, 15264.0, 15296.0, 15279.0, 15308.0, 15300.0, 15277.0, 15256.0],
      "WindowWidth": [46503.0, 46502.0, 46614.0, 46629.0, 46576.0, 46518.0, 46504.0, 46504.0, 46477.0, 46475.0, 46455.0, 46475.0, 46463.0, 46422.0, 46434.0, 46419.0, 46430.0, 46497.0, 46487.0, 46401.0, 46357.0, 46372.0, 46411.0, 46397.0, 46396.0, 46419.0, 46442.0, 46410.0, 46361.0, 46355.0, 46345.0, 46403.0, 46359.0, 46305.0, 46320.0, 46327.0, 46324.0, 46297.0, 46238.0, 46166.0, 46258.0, 46412.0, 46411.0, 46328.0, 46281.0, 46250.0, 46275.0, 46285.0, 46237.0, 46228.0, 46288.0, 46278.0, 46252.0, 46327.0, 46368.0, 46340.0, 46296.0, 46294.0, 46309.0, 46299.0, 46301.0, 46307.0, 46320.0, 46316.0, 46248.0, 46210.0, 46173.0, 46263.0, 46316.0, 46320.0, 46301.0, 46337.0, 46359.0, 46344.0, 46323.0, 46290.0, 46242.0, 46272.0, 46293.0, 46322.0, 46331.0, 46351.0, 46325.0, 46297.0, 46272.0, 46304.0, 46360.0, 46306.0, 46278.0, 46267.0, 46247.0, 46271.0, 46295.0, 46289.0, 46262.0, 46264.0, 46275.0, 46312.0, 46263.0, 46262.0, 46285.0, 46251.0, 46211.0, 46224.0, 46255.0, 46255.0, 46281.0, 46246.0, 46212.0, 46206.0, 46205.0, 46187.0, 46202.0, 46215.0, 46249.0, 46253.0, 46269.0, 46303.0, 46273.0, 46234.0, 46229.0, 46211.0, 46208.0, 46223.0, 46215.0, 46204.0, 46214.0, 46206.0, 46247.0, 46263.0, 46266.0, 46206.0, 46193.0, 46241.0, 46246.0, 46258.0, 46236.0, 46245.0, 46239.0, 46203.0, 46222.0, 46245.0, 46264.0, 46293.0, 46197.0, 46163.0, 46183.0, 46225.0, 46265.0, 46279.0, 46241.0, 46221.0, 46232.0, 46191.0, 46232.0, 46256.0, 46283.0, 46293.0, 46205.0, 46171.0, 46180.0, 46250.0, 46288.0, 46276.0, 46271.0, 46262.0, 46189.0, 46231.0, 46290.0, 46284.0, 46288.0, 46305.0, 46344.0, 46350.0, 46340.0, 46305.0, 46284.0, 46289.0, 46252.0, 46236.0, 46309.0, 46370.0, 46351.0, 46339.0, 46317.0, 46332.0, 46287.0, 46289.0, 46272.0, 46270.0, 46301.0, 46313.0, 46302.0, 46263.0, 46250.0, 46271.0, 46302.0, 46321.0, 46278.0, 46271.0, 46211.0, 46237.0, 46247.0, 46248.0, 46264.0, 46315.0, 46344.0, 46325.0, 46300.0, 46251.0, 46197.0, 46206.0, 46247.0, 46336.0, 46330.0, 46280.0, 46286.0, 46326.0]
    },
    "slices": {}
  }
}