{
  "AcquisitionMatrixPE": 116,
  "AcquisitionNumber": 1,
  "AcquisitionTime": "17:41:5.222500",
  "BandwidthPerPixelPhaseEncode": 18.539,
  "BaseResolution": 116,
  "BodyPartExamined": "HEAD",
  "ConsistencyInfo": "N4_VD13D_LATEST_20130810",
  "ConversionSoftware": "dcm2niix",
  "ConversionSoftwareVersion": "v1.0.20190410  (JP2:OpenJPEG) (JP-LS:CharLS) GCC5.5.0",
  "DerivedVendorReportedEchoSpacing": 0.000930006,
  "DeviceSerialNumber": "66014",
  "DwellTime": 3e-06,
  "EchoTime": 0.03,
  "EchoTrainLength": 50,
  "EffectiveEchoSpacing": 0.000465003,
  "FlipAngle": 81,
  "ImageComments": "Unaliased_MB3_PE4",
  "ImageOrientationPatientDICOM": [0.999492, -0.00639335, 0.031221, 0.010467, 0.991179, -0.132116],
  "ImageType": [
    "ORIGINAL",
    "PRIMARY",
    "M",
    "MB",
    "ND",
    "MOSAIC"
],
  "ImagingFrequency": 123.261,
  "InPlanePhaseEncodingDirectionDICOM": "COL",
  "InstitutionAddress": "Yiheyuan_Road_5_Beijing_Haidian_CN_100871",
  "InstitutionName": "Peking_Univeristy",
  "InstitutionalDepartmentName": "Department",
  "MRAcquisitionType": "2D",
  "MagneticFieldStrength": 3,
  "Manufacturer": "Siemens",
  "ManufacturersModelName": "Prisma",
  "Modality": "MR",
  "MultibandAccelerationFactor": 3,
  "ParallelReductionFactorInPlane": 2,
  "PartialFourier": 0.875,
  "PatientPosition": "HFS",
  "PercentPhaseFOV": 100,
  "PhaseEncodingDirection": "j-",
  "PhaseEncodingSteps": 101,
  "PhaseResolution": 1,
  "PixelBandwidth": 1435,
  "ProcedureStepDescription": "Research_Projects_64CH",
  "ProtocolName": "mbep2d_bold_MB3_learn5",
  "PulseSequenceDetails": "%CustomerSeq%_cmrr_mbep2d_bold",
  "ReceiveCoilActiveElements": "HC1-7",
  "ReceiveCoilName": "HeadNeck_64",
  "ReconMatrixPE": 116,
  "RefLinesPE": 44,
  "RepetitionTime": 2,
  "SAR": 0.0546129,
  "ScanOptions": "PFP_FS",
  "ScanningSequence": "EP",
  "SequenceName": "epfid2d1_116",
  "SequenceVariant": "SK_SS",
  "SeriesDescription": "mbep2d_bold_MB3_learn5",
  "SeriesNumber": 10,
  "ShimSetting": [-3448, -2081, -1990, 401, -1, -182, -44, -10],
  "SliceThickness": 1.9,
  "SliceTiming": [0, 0.9075, 1.815, 0.7425, 1.65, 0.5775, 1.485, 0.4125, 1.32, 0.2475, 1.155, 0.0825, 0.99, 1.8975, 0.825, 1.7325, 0.66, 1.5675, 0.495, 1.4025, 0.33, 1.2375, 0.165, 1.0725, 0, 0.9075, 1.815, 0.7425, 1.65, 0.5775, 1.485, 0.4125, 1.32, 0.2475, 1.155, 0.0825, 0.99, 1.8975, 0.825, 1.7325, 0.66, 1.5675, 0.495, 1.4025, 0.33, 1.2375, 0.165, 1.0725, 0, 0.9075, 1.815, 0.7425, 1.65, 0.5775, 1.485, 0.4125, 1.32, 0.2475, 1.155, 0.0825, 0.99, 1.8975, 0.825, 1.7325, 0.66, 1.5675, 0.495, 1.4025, 0.33, 1.2375, 0.165, 1.0725],
  "SoftwareVersions": "syngo_MR_D13D",
  "SpacingBetweenSlices": 1.9,
  "StationName": "AWP66014",
  "TaskName": "updating",
  "TotalReadoutTime": 0.0534753,
  "TxRefAmp": 217.913,
  "WipMemBlock": "82113444-3ccf-4c94-b4b4-fe7373a59399||Sequence: vd13d/master r/0735857; Nov 19 2014 09:21:40 by eja",
  "dcmmeta_affine": [
    [-1.8955883979797363, 0.01985130086541176, 0.05719173327088356, 105.69063568115234],
    [0.01212531328201294, 1.8798222541809082, -0.2515132427215576, -90.20722198486328],
    [0.05921219289302826, 0.2505642771720886, 1.8824107646942139, -94.58253479003906],
    [0.0, 0.0, 0.0, 1.0]
],
  "dcmmeta_reorient_transform": [
    [0.0, -1.0, 0.0, 115.0],
    [1.0, 0.0, 0.0, 0.0],
    [0.0, 0.0, 1.0, 0.0],
    [0.0, 0.0, 0.0, 1.0]
],
  "dcmmeta_shape": [116, 116, 72, 218],
  "dcmmeta_slice_dim": 2,
  "dcmmeta_version": 0.6,
  "global": {
    "const": {
      "AcquisitionMatrix": [116, 0, 0, 116],
      "AngioFlag": "N",
      "BitsAllocated": 16,
      "BitsStored": 16,
      "BodyPartExamined": "HEAD",
      "Columns": 1044,
      "EchoNumbers": 1,
      "EchoTime": 30.0,
      "EchoTrainLength": 50,
      "FlipAngle": 81.0,
      "HighBit": 15,
      "ImageOrientationPatient": [0.99949205895016, -0.0063933471723, 0.03122097383974, 0.01046704960566, 0.99117903464081, -0.132115715042],
      "ImagePositionPatient": [-996.73755399066, -992.58375059942, 23.01972802777],
      "ImageType": [
        "ORIGINAL",
        "PRIMARY",
        "M",
        "MB",
        "ND",
        "MOSAIC"
],
      "ImagedNucleus": "1H",
      "ImagingFrequency": 123.260599,
      "InPlanePhaseEncodingDirection": "COL",
      "LargestImagePixelValue": 65535,
      "MRAcquisitionType": "2D",
      "MagneticFieldStrength": 3.0,
      "Manufacturer": "SIEMENS",
      "ManufacturerModelName": "Prisma",
      "Modality": "MR",
      "NumberOfAverages": 1.0,
      "NumberOfPhaseEncodingSteps": 101,
      "PercentPhaseFieldOfView": 100.0,
      "PercentSampling": 100.0,
      "PerformedProcedureStepStartTime": "164558.351000",
      "PhotometricInterpretation": "MONOCHROME2",
      "PixelBandwidth": 1435.0,
      "PixelRepresentation": 0,
      "PixelSpacing": [1.8965517282486, 1.8965517282486],
      "ProtocolName": "mbep2d_bold_MB3_learn5",
      "RepetitionTime": 2000.0,
      "Rows": 1044,
      "SAR": 0.05461288457981,
      "SamplesPerPixel": 1,
      "ScanOptions": [
        "PFP",
        "FS"
],
      "ScanningSequence": "EP",
      "SequenceName": "epfid2d1_116",
      "SequenceVariant": [
        "SK",
        "SS"
],
      "SeriesDescription": "mbep2d_bold_MB3_learn5",
      "SeriesNumber": 10,
      "SeriesTime": "174121.023000",
      "SliceLocation": -78.584337329153,
      "SliceThickness": 1.8999999761581,
      "SmallestImagePixelValue": 0,
      "SoftwareVersions": "syngo MR D13D",
      "SpacingBetweenSlices": 1.8999999857844,
      "SpecificCharacterSet": "ISO_IR 100",
      "StudyID": "1",
      "StudyTime": "164558.281000",
      "TimeOfLastCalibration": ["123723.000000", "123723.000000"],
      "TransmitCoilName": "Body",
      "VariableFlipAngleFlag": "N",
      "WindowCenterWidthExplanation": "Algo1",
      "dBdt": 0.0},
    "slices": {}
  },
  "time": {
    "samples": {
      "AcquisitionNumber": [1, 2, 3, 4, 5, 6, 7, 8, 9, 10, 11, 12, 13, 14, 15, 16, 17, 18, 19, 20, 21, 22, 23, 24, 25, 26, 27, 28, 29, 30, 31, 32, 33, 34, 35, 36, 37, 38, 39, 40, 41, 42, 43, 44, 45, 46, 47, 48, 49, 50, 51, 52, 53, 54, 55, 56, 57, 58, 59, 60, 61, 62, 63, 64, 65, 66, 67, 68, 69, 70, 71, 72, 73, 74, 75, 76, 77, 78, 79, 80, 81, 82, 83, 84, 85, 86, 87, 88, 89, 90, 91, 92, 93, 94, 95, 96, 97, 98, 99, 100, 101, 102, 103, 104, 105, 106, 107, 108, 109, 110, 111, 112, 113, 114, 115, 116, 117, 118, 119, 120, 121, 122, 123, 124, 125, 126, 127, 128, 129, 130, 131, 132, 133, 134, 135, 136, 137, 138, 139, 140, 141, 142, 143, 144, 145, 146, 147, 148, 149, 150, 151, 152, 153, 154, 155, 156, 157, 158, 159, 160, 161, 162, 163, 164, 165, 166, 167, 168, 169, 170, 171, 172, 173, 174, 175, 176, 177, 178, 179, 180, 181, 182, 183, 184, 185, 186, 187, 188, 189, 190, 191, 192, 193, 194, 195, 196, 197, 198, 199, 200, 201, 202, 203, 204, 205, 206, 207, 208, 209, 210, 211, 212, 213, 214, 215, 216, 217, 218],
      "AcquisitionTime": ["174105.222500", "174107.222500", "174109.222500", "174111.222500", "174113.222500", "174115.222500", "174117.222500", "174119.222500", "174121.222500", "174123.222500", "174125.222500", "174127.222500", "174129.222500", "174131.222500", "174133.222500", "174135.222500", "174137.222500", "174139.222500", "174141.222500", "174143.222500", "174145.222500", "174147.222500", "174149.222500", "174151.222500", "174153.222500", "174155.222500", "174157.222500", "174159.222500", "174201.222500", "174203.222500", "174205.222500", "174207.222500", "174209.222500", "174211.222500", "174213.222500", "174215.222500", "174217.222500", "174219.222500", "174221.222500", "174223.222500", "174225.222500", "174227.222500", "174229.222500", "174231.222500", "174233.222500", "174235.222500", "174237.222500", "174239.222500", "174241.222500", "174243.222500", "174245.222500", "174247.222500", "174249.222500", "174251.222500", "174253.222500", "174255.222500", "174257.222500", "174259.222500", "174301.222500", "174303.222500", "174305.222500", "174307.222500", "174309.222500", "174311.222500", "174313.222500", "174315.222500", "174317.222500", "174319.222500", "174321.222500", "174323.222500", "174325.222500", "174327.222500", "174329.222500", "174331.222500", "174333.222500", "174335.222500", "174337.222500", "174339.222500", "174341.222500", "174343.222500", "174345.222500", "174347.222500", "174349.222500", "174351.222500", "174353.225000", "174355.225000", "174357.225000", "174359.225000", "174401.225000", "174403.225000", "174405.225000", "174407.225000", "174409.225000", "174411.225000", "174413.225000", "174415.225000", "174417.225000", "174419.225000", "174421.225000", "174423.225000", "174425.225000", "174427.225000", "174429.225000", "174431.225000", "174433.225000", "174435.225000", "174437.225000", "174439.225000", "174441.225000", "174443.225000", "174445.225000", "174447.225000", "174449.225000", "174451.225000", "174453.225000", "174455.225000", "174457.225000", "174459.225000", "174501.225000", "174503.225000", "174505.225000", "174507.225000", "174509.225000", "174511.225000", "174513.225000", "174515.225000", "174517.225000", "174519.225000", "174521.225000", "174523.225000", "174525.225000", "174527.225000", "174529.225000", "174531.225000", "174533.225000", "174535.225000", "174537.225000", "174539.225000", "174541.225000", "174543.225000", "174545.225000", "174547.225000", "174549.225000", "174551.225000", "174553.225000", "174555.225000", "174557.225000", "174559.225000", "174601.225000", "174603.225000", "174605.225000", "174607.225000", "174609.225000", "174611.225000", "174613.225000", "174615.225000", "174617.225000", "174619.225000", "174621.225000", "174623.225000", "174625.225000", "174627.225000", "174629.225000", "174631.225000", "174633.225000", "174635.225000", "174637.225000", "174639.225000", "174641.225000", "174643.225000", "174645.225000", "174647.225000", "174649.225000", "174651.225000", "174653.225000", "174655.225000", "174657.225000", "174659.225000", "174701.225000", "174703.225000", "174705.225000", "174707.225000", "174709.225000", "174711.225000", "174713.225000", "174715.225000", "174717.225000", "174719.225000", "174721.225000", "174723.225000", "174725.225000", "174727.225000", "174729.225000", "174731.225000", "174733.225000", "174735.225000", "174737.225000", "174739.225000", "174741.225000", "174743.225000", "174745.225000", "174747.225000", "174749.225000", "174751.225000", "174753.225000", "174755.225000", "174757.225000", "174759.225000", "174801.225000", "174803.225000", "174805.225000", "174807.225000", "174809.225000", "174811.225000", "174813.225000", "174815.225000", "174817.225000", "174819.225000"],
      "ContentTime": ["174121.028000", "174122.020000", "174123.021000", "174123.025000", "174124.020000", "174125.019000", "174125.023000", "174126.019000", "174127.019000", "174128.019000", "174129.020000", "174130.521000", "174132.521000", "174134.522000", "174136.523000", "174138.522000", "174140.522000", "174142.521000", "174144.521000", "174146.522000", "174148.522000", "174150.521000", "174152.522000", "174154.522000", "174156.522000", "174158.522000", "174200.521000", "174202.522000", "174204.521000", "174206.521000", "174208.521000", "174210.522000", "174212.521000", "174214.523000", "174216.521000", "174218.520000", "174220.520000", "174222.521000", "174224.521000", "174226.521000", "174228.522000", "174230.522000", "174232.522000", "174234.521000", "174236.521000", "174238.522000", "174240.521000", "174242.521000", "174244.522000", "174246.522000", "174248.520000", "174250.522000", "174252.521000", "174254.521000", "174256.522000", "174258.520000", "174300.521000", "174302.522000", "174304.521000", "174306.521000", "174308.522000", "174310.521000", "174312.520000", "174314.520000", "174316.522000", "174318.522000", "174320.522000", "174322.522000", "174324.522000", "174326.523000", "174328.521000", "174330.521000", "174332.521000", "174334.521000", "174336.521000", "174338.522000", "174340.522000", "174342.522000", "174344.521000", "174346.521000", "174348.521000", "174350.522000", "174352.522000", "174354.522000", "174356.522000", "174358.522000", "174400.522000", "174402.521000", "174404.521000", "174406.521000", "174408.521000", "174410.521000", "174412.522000", "174414.522000", "174416.523000", "174418.522000", "174420.521000", "174422.521000", "174424.521000", "174426.521000", "174428.521000", "174430.521000", "174432.521000", "174434.522000", "174436.522000", "174438.521000", "174440.521000", "174442.521000", "174444.522000", "174446.521000", "174448.522000", "174450.522000", "174452.522000", "174454.521000", "174456.521000", "174458.521000", "174500.521000", "174502.521000", "174504.522000", "174506.522000", "174508.522000", "174510.523000", "174512.521000", "174514.521000", "174516.521000", "174518.521000", "174520.521000", "174522.522000", "174524.522000", "174526.522000", "174528.523000", "174530.521000", "174532.530000", "174534.521000", "174536.521000", "174538.521000", "174540.522000", "174542.522000", "174544.522000", "174546.522000", "174548.521000", "174550.521000", "174552.521000", "174554.522000", "174556.520000", "174558.522000", "174600.522000", "174602.522000", "174604.519000", "174606.521000", "174608.521000", "174610.521000", "174612.521000", "174614.522000", "174616.522000", "174618.522000", "174620.522000", "174622.521000", "174624.522000", "174626.522000", "174628.521000", "174630.522000", "174632.522000", "174634.522000", "174636.522000", "174638.521000", "174640.521000", "174642.521000", "174644.521000", "174646.521000", "174648.521000", "174650.522000", "174652.522000", "174654.523000", "174656.522000", "174658.522000", "174700.522000", "174702.521000", "174704.522000", "174706.522000", "174708.522000", "174710.522000", "174712.522000", "174714.521000", "174716.520000", "174718.521000", "174720.521000", "174722.521000", "174724.522000", "174726.522000", "174728.522000", "174730.522000", "174732.521000", "174734.521000", "174736.521000", "174738.521000", "174740.520000", "174742.522000", "174744.523000", "174746.522000", "174748.522000", "174750.521000", "174752.521000", "174754.521000", "174756.521000", "174758.521000", "174800.522000", "174802.522000", "174804.523000", "174806.522000", "174808.521000", "174810.521000", "174812.521000", "174814.521000", "174816.522000", "174818.523000", "174820.523000", "174822.099000"],
      "InstanceCreationTime": ["174121.028000", "174122.020000", "174123.021000", "174123.025000", "174124.020000", "174125.019000", "174125.023000", "174126.019000", "174127.019000", "174128.019000", "174129.020000", "174130.521000", "174132.521000", "174134.522000", "174136.523000", "174138.522000", "174140.522000", "174142.521000", "174144.521000", "174146.522000", "174148.522000", "174150.521000", "174152.522000", "174154.522000", "174156.522000", "174158.522000", "174200.521000", "174202.522000", "174204.521000", "174206.521000", "174208.521000", "174210.522000", "174212.521000", "174214.523000", "174216.521000", "174218.520000", "174220.520000", "174222.521000", "174224.521000", "174226.521000", "174228.522000", "174230.522000", "174232.522000", "174234.521000", "174236.521000", "174238.522000", "174240.521000", "174242.521000", "174244.522000", "174246.522000", "174248.520000", "174250.522000", "174252.521000", "174254.521000", "174256.522000", "174258.520000", "174300.521000", "174302.522000", "174304.521000", "174306.521000", "174308.522000", "174310.521000", "174312.520000", "174314.520000", "174316.522000", "174318.522000", "174320.522000", "174322.522000", "174324.522000", "174326.523000", "174328.521000", "174330.521000", "174332.521000", "174334.521000", "174336.521000", "174338.522000", "174340.522000", "174342.522000", "174344.521000", "174346.521000", "174348.521000", "174350.522000", "174352.522000", "174354.522000", "174356.522000", "174358.522000", "174400.522000", "174402.521000", "174404.521000", "174406.521000", "174408.521000", "174410.521000", "174412.522000", "174414.522000", "174416.523000", "174418.522000", "174420.521000", "174422.521000", "174424.521000", "174426.521000", "174428.521000", "174430.521000", "174432.521000", "174434.522000", "174436.522000", "174438.521000", "174440.521000", "174442.521000", "174444.522000", "174446.521000", "174448.522000", "174450.522000", "174452.522000", "174454.521000", "174456.521000", "174458.521000", "174500.521000", "174502.521000", "174504.522000", "174506.522000", "174508.522000", "174510.523000", "174512.521000", "174514.521000", "174516.521000", "174518.521000", "174520.521000", "174522.522000", "174524.522000", "174526.522000", "174528.523000", "174530.521000", "174532.530000", "174534.521000", "174536.521000", "174538.521000", "174540.522000", "174542.522000", "174544.522000", "174546.522000", "174548.521000", "174550.521000", "174552.521000", "174554.522000", "174556.520000", "174558.522000", "174600.522000", "174602.522000", "174604.519000", "174606.521000", "174608.521000", "174610.521000", "174612.521000", "174614.522000", "174616.522000", "174618.522000", "174620.522000", "174622.521000", "174624.522000", "174626.522000", "174628.521000", "174630.522000", "174632.522000", "174634.522000", "174636.522000", "174638.521000", "174640.521000", "174642.521000", "174644.521000", "174646.521000", "174648.521000", "174650.522000", "174652.522000", "174654.523000", "174656.522000", "174658.522000", "174700.522000", "174702.521000", "174704.522000", "174706.522000", "174708.522000", "174710.522000", "174712.522000", "174714.521000", "174716.520000", "174718.521000", "174720.521000", "174722.521000", "174724.522000", "174726.522000", "174728.522000", "174730.522000", "174732.521000", "174734.521000", "174736.521000", "174738.521000", "174740.520000", "174742.522000", "174744.523000", "174746.522000", "174748.522000", "174750.521000", "174752.521000", "174754.521000", "174756.521000", "174758.521000", "174800.522000", "174802.522000", "174804.523000", "174806.522000", "174808.521000", "174810.521000", "174812.521000", "174814.521000", "174816.522000", "174818.523000", "174820.523000", "174822.099000"],
      "InstanceNumber": [1, 2, 3, 4, 5, 6, 7, 8, 9, 10, 11, 12, 13, 14, 15, 16, 17, 18, 19, 20, 21, 22, 23, 24, 25, 26, 27, 28, 29, 30, 31, 32, 33, 34, 35, 36, 37, 38, 39, 40, 41, 42, 43, 44, 45, 46, 47, 48, 49, 50, 51, 52, 53, 54, 55, 56, 57, 58, 59, 60, 61, 62, 63, 64, 65, 66, 67, 68, 69, 70, 71, 72, 73, 74, 75, 76, 77, 78, 79, 80, 81, 82, 83, 84, 85, 86, 87, 88, 89, 90, 91, 92, 93, 94, 95, 96, 97, 98, 99, 100, 101, 102, 103, 104, 105, 106, 107, 108, 109, 110, 111, 112, 113, 114, 115, 116, 117, 118, 119, 120, 121, 122, 123, 124, 125, 126, 127, 128, 129, 130, 131, 132, 133, 134, 135, 136, 137, 138, 139, 140, 141, 142, 143, 144, 145, 146, 147, 148, 149, 150, 151, 152, 153, 154, 155, 156, 157, 158, 159, 160, 161, 162, 163, 164, 165, 166, 167, 168, 169, 170, 171, 172, 173, 174, 175, 176, 177, 178, 179, 180, 181, 182, 183, 184, 185, 186, 187, 188, 189, 190, 191, 192, 193, 194, 195, 196, 197, 198, 199, 200, 201, 202, 203, 204, 205, 206, 207, 208, 209, 210, 211, 212, 213, 214, 215, 216, 217, 218],
      "WindowCenter": [15483.0, 15457.0, 15468.0, 15473.0, 15483.0, 15480.0, 15454.0, 15437.0, 15450.0, 15457.0, 15456.0, 15466.0, 15436.0, 15432.0, 15444.0, 15450.0, 15463.0, 15451.0, 15442.0, 15449.0, 15438.0, 15434.0, 15449.0, 15431.0, 15421.0, 15443.0, 15425.0, 15413.0, 15436.0, 15413.0, 15424.0, 15431.0, 15443.0, 15443.0, 15439.0, 15443.0, 15448.0, 15440.0, 15434.0, 15446.0, 15449.0, 15441.0, 15438.0, 15426.0, 15438.0, 15423.0, 15403.0, 15415.0, 15435.0, 15451.0, 15426.0, 15429.0, 15423.0, 15427.0, 15435.0, 15441.0, 15418.0, 15434.0, 15441.0, 15444.0, 15439.0, 15420.0, 15448.0, 15446.0, 15428.0, 15417.0, 15432.0, 15425.0, 15428.0, 15426.0, 15429.0, 15427.0, 15428.0, 15430.0, 15428.0, 15431.0, 15420.0, 15421.0, 15428.0, 15430.0, 15438.0, 15427.0, 15414.0, 15430.0, 15409.0, 15443.0, 15429.0, 15427.0, 15420.0, 15431.0, 15436.0, 15427.0, 15420.0, 15420.0, 15424.0, 15426.0, 15413.0, 15433.0, 15432.0, 15437.0, 15439.0, 15433.0, 15433.0, 15430.0, 15438.0, 15437.0, 15432.0, 15435.0, 15444.0, 15439.0, 15429.0, 15458.0, 15454.0, 15452.0, 15442.0, 15436.0, 15441.0, 15449.0, 15463.0, 15448.0, 15425.0, 15434.0, 15452.0, 15448.0, 15437.0, 15429.0, 15430.0, 15429.0, 15446.0, 15451.0, 15457.0, 15450.0, 15440.0, 15435.0, 15430.0, 15456.0, 15462.0, 15420.0, 15443.0, 15439.0, 15443.0, 15437.0, 15438.0, 15436.0, 15448.0, 15439.0, 15451.0, 15457.0, 15453.0, 15455.0, 15434.0, 15446.0, 15463.0, 15456.0, 15460.0, 15466.0, 15463.0, 15439.0, 15460.0, 15462.0, 15459.0, 15460.0, 15468.0, 15477.0, 15458.0, 15454.0, 15463.0, 15470.0, 15458.0, 15485.0, 15482.0, 15467.0, 15489.0, 15502.0, 15493.0, 15476.0, 15491.0, 15462.0, 15458.0, 15461.0, 15478.0, 15457.0, 15478.0, 15486.0, 15485.0, 15486.0, 15483.0, 15467.0, 15482.0, 15470.0, 15465.0, 15488.0, 15482.0, 15475.0, 15460.0, 15453.0, 15468.0, 15442.0, 15472.0, 15452.0, 15434.0, 15451.0, 15465.0, 15464.0, 15445.0, 15440.0, 15460.0, 15446.0, 15444.0, 15441.0, 15454.0, 15437.0, 15454.0, 15430.0, 15440.0, 15443.0, 15439.0, 15447.0],
      "WindowWidth": [46927.0, 46867.0, 46972.0, 46992.0, 46940.0, 46856.0, 46874.0, 46849.0, 46886.0, 46892.0, 46808.0, 46783.0, 46776.0, 46802.0, 46813.0, 46831.0, 46785.0, 46774.0, 46768.0, 46790.0, 46863.0, 46859.0, 46802.0, 46829.0, 46837.0, 46809.0, 46798.0, 46842.0, 46834.0, 46832.0, 46894.0, 46901.0, 46840.0, 46854.0, 46836.0, 46768.0, 46744.0, 46727.0, 46805.0, 46829.0, 46845.0, 46824.0, 46777.0, 46756.0, 46766.0, 46783.0, 46837.0, 46859.0, 46807.0, 46777.0, 46816.0, 46872.0, 46853.0, 46827.0, 46779.0, 46754.0, 46767.0, 46820.0, 46813.0, 46784.0, 46725.0, 46767.0, 46816.0, 46831.0, 46801.0, 46780.0, 46794.0, 46856.0, 46828.0, 46771.0, 46758.0, 46744.0, 46773.0, 46788.0, 46759.0, 46790.0, 46867.0, 46882.0, 46843.0, 46773.0, 46754.0, 46787.0, 46805.0, 46817.0, 46800.0, 46798.0, 46832.0, 46840.0, 46782.0, 46789.0, 46795.0, 46857.0, 46836.0, 46796.0, 46827.0, 46829.0, 46885.0, 46820.0, 46776.0, 46782.0, 46698.0, 46623.0, 46606.0, 46621.0, 46700.0, 46754.0, 46775.0, 46763.0, 46756.0, 46769.0, 46819.0, 46826.0, 46810.0, 46794.0, 46841.0, 46893.0, 46897.0, 46890.0, 46887.0, 46861.0, 46839.0, 46861.0, 46892.0, 46861.0, 46795.0, 46784.0, 46744.0, 46772.0, 46814.0, 46845.0, 46839.0, 46788.0, 46795.0, 46833.0, 46831.0, 46795.0, 46800.0, 46866.0, 46854.0, 46838.0, 46841.0, 46850.0, 46820.0, 46806.0, 46787.0, 46836.0, 46833.0, 46824.0, 46778.0, 46765.0, 46835.0, 46873.0, 46815.0, 46753.0, 46726.0, 46704.0, 46718.0, 46795.0, 46828.0, 46840.0, 46794.0, 46769.0, 46790.0, 46784.0, 46770.0, 46766.0, 46786.0, 46779.0, 46812.0, 46804.0, 46820.0, 46863.0, 46880.0, 46849.0, 46784.0, 46799.0, 46797.0, 46815.0, 46842.0, 46899.0, 46955.0, 46982.0, 47009.0, 46976.0, 46904.0, 46849.0, 46875.0, 46947.0, 46931.0, 46865.0, 46848.0, 46878.0, 46886.0, 46866.0, 46857.0, 46906.0, 46919.0, 46927.0, 46851.0, 46809.0, 46822.0, 46848.0, 46862.0, 46845.0, 46829.0, 46854.0, 46841.0, 46874.0, 46900.0, 46868.0, 46864.0, 46893.0, 46823.0, 46787.0, 46772.0, 46872.0, 46895.0, 46859.0]
    },
    "slices": {}
  }
}