{
  "AcquisitionMatrixPE": 116,
  "AcquisitionNumber": 1,
  "AcquisitionTime": "17:14:59.315000",
  "BandwidthPerPixelPhaseEncode": 18.539,
  "BaseResolution": 116,
  "BodyPartExamined": "HEAD",
  "ConsistencyInfo": "N4_VD13D_LATEST_20130810",
  "ConversionSoftware": "dcm2niix",
  "ConversionSoftwareVersion": "v1.0.20190410  (JP2:OpenJPEG) (JP-LS:CharLS) GCC5.5.0",
  "DerivedVendorReportedEchoSpacing": 0.000930006,
  "DeviceSerialNumber": "66014",
  "DwellTime": 3e-06,
  "EchoTime": 0.03,
  "EchoTrainLength": 50,
  "EffectiveEchoSpacing": 0.000465003,
  "FlipAngle": 81,
  "ImageComments": "Unaliased_MB3_PE4",
  "ImageOrientationPatientDICOM": [0.999492, -0.00639335, 0.031221, 0.010467, 0.991179, -0.132116],
  "ImageType": [
    "ORIGINAL",
    "PRIMARY",
    "M",
    "MB",
    "ND",
    "MOSAIC"
],
  "ImagingFrequency": 123.261,
  "InPlanePhaseEncodingDirectionDICOM": "COL",
  "InstitutionAddress": "Yiheyuan_Road_5_Beijing_Haidian_CN_100871",
  "InstitutionName": "Peking_Univeristy",
  "InstitutionalDepartmentName": "Department",
  "MRAcquisitionType": "2D",
  "MagneticFieldStrength": 3,
  "Manufacturer": "Siemens",
  "ManufacturersModelName": "Prisma",
  "Modality": "MR",
  "MultibandAccelerationFactor": 3,
  "ParallelReductionFactorInPlane": 2,
  "PartialFourier": 0.875,
  "PatientPosition": "HFS",
  "PercentPhaseFOV": 100,
  "PhaseEncodingDirection": "j-",
  "PhaseEncodingSteps": 101,
  "PhaseResolution": 1,
  "PixelBandwidth": 1435,
  "ProcedureStepDescription": "Research_Projects_64CH",
  "ProtocolName": "mbep2d_bold_MB3_learn2",
  "PulseSequenceDetails": "%CustomerSeq%_cmrr_mbep2d_bold",
  "ReceiveCoilActiveElements": "HC1-7",
  "ReceiveCoilName": "HeadNeck_64",
  "ReconMatrixPE": 116,
  "RefLinesPE": 44,
  "RepetitionTime": 2,
  "SAR": 0.0546129,
  "ScanOptions": "PFP_FS",
  "ScanningSequence": "EP",
  "SequenceName": "epfid2d1_116",
  "SequenceVariant": "SK_SS",
  "SeriesDescription": "mbep2d_bold_MB3_learn2",
  "SeriesNumber": 7,
  "ShimSetting": [-3448, -2081, -1990, 401, -1, -182, -44, -10],
  "SliceThickness": 1.9,
  "SliceTiming": [0, 0.9075, 1.815, 0.7425, 1.65, 0.5775, 1.485, 0.4125, 1.32, 0.2475, 1.155, 0.0825, 0.99, 1.8975, 0.825, 1.7325, 0.66, 1.5675, 0.495, 1.4025, 0.33, 1.2375, 0.165, 1.0725, 0, 0.9075, 1.815, 0.7425, 1.65, 0.5775, 1.485, 0.4125, 1.32, 0.2475, 1.155, 0.0825, 0.99, 1.8975, 0.825, 1.7325, 0.66, 1.5675, 0.495, 1.4025, 0.33, 1.2375, 0.165, 1.0725, 0, 0.9075, 1.815, 0.7425, 1.65, 0.5775, 1.485, 0.4125, 1.32, 0.2475, 1.155, 0.0825, 0.99, 1.8975, 0.825, 1.7325, 0.66, 1.5675, 0.495, 1.4025, 0.33, 1.2375, 0.165, 1.0725],
  "SoftwareVersions": "syngo_MR_D13D",
  "SpacingBetweenSlices": 1.9,
  "StationName": "AWP66014",
  "TaskName": "updating",
  "TotalReadoutTime": 0.0534753,
  "TxRefAmp": 217.913,
  "WipMemBlock": "8bbfd443-9acc-47b5-9254-af0b4f68de3f||Sequence: vd13d/master r/0735857; Nov 19 2014 09:21:40 by eja",
  "dcmmeta_affine": [
    [-1.8955883979797363, 0.01985130086541176, 0.05719173327088356, 105.69063568115234],
    [0.01212531328201294, 1.8798222541809082, -0.2515132427215576, -90.20722198486328],
    [0.05921219289302826, 0.2505642771720886, 1.8824107646942139, -94.58253479003906],
    [0.0, 0.0, 0.0, 1.0]
],
  "dcmmeta_reorient_transform": [
    [0.0, -1.0, 0.0, 115.0],
    [1.0, 0.0, 0.0, 0.0],
    [0.0, 0.0, 1.0, 0.0],
    [0.0, 0.0, 0.0, 1.0]
],
  "dcmmeta_shape": [116, 116, 72, 218],
  "dcmmeta_slice_dim": 2,
  "dcmmeta_version": 0.6,
  "global": {
    "const": {
      "AcquisitionMatrix": [116, 0, 0, 116],
      "AngioFlag": "N",
      "BitsAllocated": 16,
      "BitsStored": 16,
      "BodyPartExamined": "HEAD",
      "Columns": 1044,
      "EchoNumbers": 1,
      "EchoTime": 30.0,
      "EchoTrainLength": 50,
      "FlipAngle": 81.0,
      "HighBit": 15,
      "ImageOrientationPatient": [0.99949205895016, -0.0063933471723, 0.03122097383974, 0.01046704960566, 0.99117903464081, -0.132115715042],
      "ImagePositionPatient": [-996.73755399066, -992.58375059942, 23.01972802777],
      "ImageType": [
        "ORIGINAL",
        "PRIMARY",
        "M",
        "MB",
        "ND",
        "MOSAIC"
],
      "ImagedNucleus": "1H",
      "ImagingFrequency": 123.260594,
      "InPlanePhaseEncodingDirection": "COL",
      "LargestImagePixelValue": 65535,
      "MRAcquisitionType": "2D",
      "MagneticFieldStrength": 3.0,
      "Manufacturer": "SIEMENS",
      "ManufacturerModelName": "Prisma",
      "Modality": "MR",
      "NumberOfAverages": 1.0,
      "NumberOfPhaseEncodingSteps": 101,
      "PercentPhaseFieldOfView": 100.0,
      "PercentSampling": 100.0,
      "PerformedProcedureStepStartTime": "164558.351000",
      "PhotometricInterpretation": "MONOCHROME2",
      "PixelBandwidth": 1435.0,
      "PixelRepresentation": 0,
      "PixelSpacing": [1.8965517282486, 1.8965517282486],
      "ProtocolName": "mbep2d_bold_MB3_learn2",
      "RepetitionTime": 2000.0,
      "Rows": 1044,
      "SAR": 0.05461288457981,
      "SamplesPerPixel": 1,
      "ScanOptions": [
        "PFP",
        "FS"
],
      "ScanningSequence": "EP",
      "SequenceName": "epfid2d1_116",
      "SequenceVariant": [
        "SK",
        "SS"
],
      "SeriesDescription": "mbep2d_bold_MB3_learn2",
      "SeriesNumber": 7,
      "SeriesTime": "171514.430000",
      "SliceLocation": -78.584337329153,
      "SliceThickness": 1.8999999761581,
      "SmallestImagePixelValue": 0,
      "SoftwareVersions": "syngo MR D13D",
      "SpacingBetweenSlices": 1.8999999857844,
      "SpecificCharacterSet": "ISO_IR 100",
      "StudyID": "1",
      "StudyTime": "164558.281000",
      "TimeOfLastCalibration": ["123723.000000", "123723.000000"],
      "TransmitCoilName": "Body",
      "VariableFlipAngleFlag": "N",
      "WindowCenterWidthExplanation": "Algo1",
      "dBdt": 0.0},
    "slices": {}
  },
  "time": {
    "samples": {
      "AcquisitionNumber": [1, 2, 3, 4, 5, 6, 7, 8, 9, 10, 11, 12, 13, 14, 15, 16, 17, 18, 19, 20, 21, 22, 23, 24, 25, 26, 27, 28, 29, 30, 31, 32, 33, 34, 35, 36, 37, 38, 39, 40, 41, 42, 43, 44, 45, 46, 47, 48, 49, 50, 51, 52, 53, 54, 55, 56, 57, 58, 59, 60, 61, 62, 63, 64, 65, 66, 67, 68, 69, 70, 71, 72, 73, 74, 75, 76, 77, 78, 79, 80, 81, 82, 83, 84, 85, 86, 87, 88, 89, 90, 91, 92, 93, 94, 95, 96, 97, 98, 99, 100, 101, 102, 103, 104, 105, 106, 107, 108, 109, 110, 111, 112, 113, 114, 115, 116, 117, 118, 119, 120, 121, 122, 123, 124, 125, 126, 127, 128, 129, 130, 131, 132, 133, 134, 135, 136, 137, 138, 139, 140, 141, 142, 143, 144, 145, 146, 147, 148, 149, 150, 151, 152, 153, 154, 155, 156, 157, 158, 159, 160, 161, 162, 163, 164, 165, 166, 167, 168, 169, 170, 171, 172, 173, 174, 175, 176, 177, 178, 179, 180, 181, 182, 183, 184, 185, 186, 187, 188, 189, 190, 191, 192, 193, 194, 195, 196, 197, 198, 199, 200, 201, 202, 203, 204, 205, 206, 207, 208, 209, 210, 211, 212, 213, 214, 215, 216, 217, 218],
      "AcquisitionTime": ["171459.315000", "171501.315000", "171503.315000", "171505.315000", "171507.315000", "171509.315000", "171511.315000", "171513.315000", "171515.315000", "171517.315000", "171519.315000", "171521.315000", "171523.315000", "171525.315000", "171527.315000", "171529.315000", "171531.315000", "171533.315000", "171535.315000", "171537.315000", "171539.315000", "171541.315000", "171543.315000", "171545.315000", "171547.315000", "171549.315000", "171551.315000", "171553.315000", "171555.315000", "171557.315000", "171559.315000", "171601.315000", "171603.315000", "171605.315000", "171607.315000", "171609.315000", "171611.315000", "171613.315000", "171615.315000", "171617.315000", "171619.315000", "171621.315000", "171623.315000", "171625.315000", "171627.315000", "171629.315000", "171631.315000", "171633.315000", "171635.315000", "171637.315000", "171639.315000", "171641.315000", "171643.315000", "171645.315000", "171647.315000", "171649.315000", "171651.315000", "171653.315000", "171655.315000", "171657.315000", "171659.315000", "171701.315000", "171703.315000", "171705.315000", "171707.315000", "171709.315000", "171711.315000", "171713.315000", "171715.315000", "171717.315000", "171719.315000", "171721.315000", "171723.315000", "171725.315000", "171727.315000", "171729.315000", "171731.315000", "171733.315000", "171735.317500", "171737.317500", "171739.317500", "171741.317500", "171743.317500", "171745.317500", "171747.317500", "171749.317500", "171751.317500", "171753.317500", "171755.317500", "171757.317500", "171759.317500", "171801.317500", "171803.317500", "171805.317500", "171807.317500", "171809.317500", "171811.317500", "171813.317500", "171815.317500", "171817.317500", "171819.317500", "171821.317500", "171823.317500", "171825.317500", "171827.317500", "171829.317500", "171831.317500", "171833.317500", "171835.317500", "171837.317500", "171839.317500", "171841.317500", "171843.317500", "171845.317500", "171847.317500", "171849.317500", "171851.317500", "171853.317500", "171855.317500", "171857.317500", "171859.317500", "171901.317500", "171903.317500", "171905.317500", "171907.317500", "171909.317500", "171911.317500", "171913.317500", "171915.317500", "171917.317500", "171919.317500", "171921.317500", "171923.317500", "171925.317500", "171927.317500", "171929.317500", "171931.317500", "171933.317500", "171935.317500", "171937.317500", "171939.317500", "171941.317500", "171943.317500", "171945.317500", "171947.317500", "171949.317500", "171951.317500", "171953.317500", "171955.317500", "171957.317500", "171959.317500", "172001.317500", "172003.317500", "172005.317500", "172007.317500", "172009.317500", "172011.317500", "172013.317500", "172015.317500", "172017.317500", "172019.317500", "172021.317500", "172023.317500", "172025.317500", "172027.317500", "172029.317500", "172031.317500", "172033.317500", "172035.317500", "172037.317500", "172039.317500", "172041.317500", "172043.317500", "172045.317500", "172047.317500", "172049.317500", "172051.317500", "172053.317500", "172055.317500", "172057.317500", "172059.317500", "172101.317500", "172103.317500", "172105.317500", "172107.317500", "172109.317500", "172111.317500", "172113.317500", "172115.317500", "172117.317500", "172119.317500", "172121.317500", "172123.317500", "172125.317500", "172127.317500", "172129.317500", "172131.317500", "172133.317500", "172135.317500", "172137.317500", "172139.317500", "172141.317500", "172143.317500", "172145.317500", "172147.317500", "172149.317500", "172151.317500", "172153.317500", "172155.317500", "172157.317500", "172159.317500", "172201.317500", "172203.317500", "172205.317500", "172207.317500", "172209.317500", "172211.317500", "172213.317500"],
      "ContentTime": ["171514.437000", "171515.428000", "171516.426000", "171516.430000", "171517.927000", "171517.931000", "171519.428000", "171519.432000", "171520.929000", "171520.933000", "171522.428000", "171524.427000", "171526.428000", "171528.428000", "171530.429000", "171532.429000", "171534.426000", "171536.427000", "171538.429000", "171540.429000", "171542.429000", "171544.429000", "171546.429000", "171548.429000", "171550.429000", "171552.428000", "171554.428000", "171556.429000", "171558.428000", "171600.429000", "171602.429000", "171604.428000", "171606.429000", "171608.429000", "171610.428000", "171612.428000", "171614.430000", "171616.430000", "171618.429000", "171620.427000", "171622.429000", "171624.429000", "171626.428000", "171628.428000", "171630.443000", "171632.429000", "171634.428000", "171636.429000", "171638.429000", "171640.429000", "171642.430000", "171644.428000", "171646.428000", "171648.429000", "171650.430000", "171652.429000", "171654.429000", "171656.430000", "171658.429000", "171700.429000", "171702.428000", "171704.426000", "171706.427000", "171708.428000", "171710.428000", "171712.428000", "171714.428000", "171716.428000", "171718.427000", "171720.427000", "171722.427000", "171724.428000", "171726.429000", "171728.429000", "171730.429000", "171732.429000", "171734.429000", "171736.426000", "171738.426000", "171740.426000", "171742.429000", "171744.429000", "171746.428000", "171748.429000", "171750.427000", "171752.429000", "171754.428000", "171756.428000", "171758.429000", "171800.428000", "171802.429000", "171804.429000", "171806.429000", "171808.428000", "171810.429000", "171812.427000", "171814.428000", "171816.428000", "171818.428000", "171820.428000", "171822.428000", "171824.428000", "171826.428000", "171828.428000", "171830.428000", "171832.428000", "171834.429000", "171836.428000", "171838.428000", "171840.429000", "171842.429000", "171844.429000", "171846.428000", "171848.428000", "171850.428000", "171852.429000", "171854.428000", "171856.428000", "171858.429000", "171900.428000", "171902.429000", "171904.429000", "171906.428000", "171908.427000", "171910.429000", "171912.428000", "171914.429000", "171916.427000", "171918.428000", "171920.429000", "171922.427000", "171924.428000", "171926.427000", "171928.427000", "171930.429000", "171932.429000", "171934.429000", "171936.428000", "171938.428000", "171940.428000", "171942.428000", "171944.429000", "171946.430000", "171948.429000", "171950.427000", "171952.428000", "171954.429000", "171956.428000", "171958.428000", "172000.428000", "172002.429000", "172004.429000", "172006.429000", "172008.429000", "172010.427000", "172012.428000", "172014.427000", "172016.426000", "172018.428000", "172020.428000", "172022.428000", "172024.428000", "172026.428000", "172028.428000", "172030.429000", "172032.428000", "172034.429000", "172036.429000", "172038.429000", "172040.429000", "172042.430000", "172044.429000", "172046.429000", "172048.428000", "172050.428000", "172052.428000", "172054.429000", "172056.430000", "172058.429000", "172100.429000", "172102.429000", "172104.428000", "172106.428000", "172108.426000", "172110.426000", "172112.429000", "172114.429000", "172116.438000", "172118.428000", "172120.428000", "172122.428000", "172124.427000", "172126.427000", "172128.428000", "172130.428000", "172132.428000", "172134.428000", "172136.429000", "172138.429000", "172140.429000", "172142.428000", "172144.428000", "172146.429000", "172148.429000", "172150.429000", "172152.429000", "172154.429000", "172156.429000", "172158.428000", "172200.429000", "172202.428000", "172204.429000", "172206.429000", "172208.429000", "172210.429000", "172212.427000", "172214.429000", "172215.934000"],
      "InstanceCreationTime": ["171514.437000", "171515.428000", "171516.426000", "171516.430000", "171517.927000", "171517.931000", "171519.428000", "171519.432000", "171520.929000", "171520.933000", "171522.428000", "171524.427000", "171526.428000", "171528.428000", "171530.429000", "171532.429000", "171534.426000", "171536.427000", "171538.429000", "171540.429000", "171542.429000", "171544.429000", "171546.429000", "171548.429000", "171550.429000", "171552.428000", "171554.428000", "171556.429000", "171558.428000", "171600.429000", "171602.429000", "171604.428000", "171606.429000", "171608.429000", "171610.428000", "171612.428000", "171614.430000", "171616.430000", "171618.429000", "171620.427000", "171622.429000", "171624.429000", "171626.428000", "171628.428000", "171630.443000", "171632.429000", "171634.428000", "171636.429000", "171638.429000", "171640.429000", "171642.430000", "171644.428000", "171646.428000", "171648.429000", "171650.430000", "171652.429000", "171654.429000", "171656.430000", "171658.429000", "171700.429000", "171702.428000", "171704.426000", "171706.427000", "171708.428000", "171710.428000", "171712.428000", "171714.428000", "171716.428000", "171718.427000", "171720.427000", "171722.427000", "171724.428000", "171726.429000", "171728.429000", "171730.429000", "171732.429000", "171734.429000", "171736.426000", "171738.426000", "171740.426000", "171742.429000", "171744.429000", "171746.428000", "171748.429000", "171750.427000", "171752.429000", "171754.428000", "171756.428000", "171758.429000", "171800.428000", "171802.429000", "171804.429000", "171806.429000", "171808.428000", "171810.429000", "171812.427000", "171814.428000", "171816.428000", "171818.428000", "171820.428000", "171822.428000", "171824.428000", "171826.428000", "171828.428000", "171830.428000", "171832.428000", "171834.429000", "171836.428000", "171838.428000", "171840.429000", "171842.429000", "171844.429000", "171846.428000", "171848.428000", "171850.428000", "171852.429000", "171854.428000", "171856.428000", "171858.429000", "171900.428000", "171902.429000", "171904.429000", "171906.428000", "171908.427000", "171910.429000", "171912.428000", "171914.429000", "171916.427000", "171918.428000", "171920.429000", "171922.427000", "171924.428000", "171926.427000", "171928.427000", "171930.429000", "171932.429000", "171934.429000", "171936.428000", "171938.428000", "171940.428000", "171942.428000", "171944.429000", "171946.430000", "171948.429000", "171950.427000", "171952.428000", "171954.429000", "171956.428000", "171958.428000", "172000.428000", "172002.429000", "172004.429000", "172006.429000", "172008.429000", "172010.427000", "172012.428000", "172014.427000", "172016.426000", "172018.428000", "172020.428000", "172022.428000", "172024.428000", "172026.428000", "172028.428000", "172030.429000", "172032.428000", "172034.429000", "172036.429000", "172038.429000", "172040.429000", "172042.430000", "172044.429000", "172046.429000", "172048.428000", "172050.428000", "172052.428000", "172054.429000", "172056.430000", "172058.429000", "172100.429000", "172102.429000", "172104.428000", "172106.428000", "172108.426000", "172110.426000", "172112.429000", "172114.429000", "172116.438000", "172118.428000", "172120.428000", "172122.428000", "172124.427000", "172126.427000", "172128.428000", "172130.428000", "172132.428000", "172134.428000", "172136.429000", "172138.429000", "172140.429000", "172142.428000", "172144.428000", "172146.429000", "172148.429000", "172150.429000", "172152.429000", "172154.429000", "172156.429000", "172158.428000", "172200.429000", "172202.428000", "172204.429000", "172206.429000", "172208.429000", "172210.429000", "172212.427000", "172214.429000", "172215.934000"],
      "InstanceNumber": [1, 2, 3, 4, 5, 6, 7, 8, 9, 10, 11, 12, 13, 14, 15, 16, 17, 18, 19, 20, 21, 22, 23, 24, 25, 26, 27, 28, 29, 30, 31, 32, 33, 34, 35, 36, 37, 38, 39, 40, 41, 42, 43, 44, 45, 46, 47, 48, 49, 50, 51, 52, 53, 54, 55, 56, 57, 58, 59, 60, 61, 62, 63, 64, 65, 66, 67, 68, 69, 70, 71, 72, 73, 74, 75, 76, 77, 78, 79, 80, 81, 82, 83, 84, 85, 86, 87, 88, 89, 90, 91, 92, 93, 94, 95, 96, 97, 98, 99, 100, 101, 102, 103, 104, 105, 106, 107, 108, 109, 110, 111, 112, 113, 114, 115, 116, 117, 118, 119, 120, 121, 122, 123, 124, 125, 126, 127, 128, 129, 130, 131, 132, 133, 134, 135, 136, 137, 138, 139, 140, 141, 142, 143, 144, 145, 146, 147, 148, 149, 150, 151, 152, 153, 154, 155, 156, 157, 158, 159, 160, 161, 162, 163, 164, 165, 166, 167, 168, 169, 170, 171, 172, 173, 174, 175, 176, 177, 178, 179, 180, 181, 182, 183, 184, 185, 186, 187, 188, 189, 190, 191, 192, 193, 194, 195, 196, 197, 198, 199, 200, 201, 202, 203, 204, 205, 206, 207, 208, 209, 210, 211, 212, 213, 214, 215, 216, 217, 218],
      "WindowCenter": [15415.0, 15398.0, 15401.0, 15405.0, 15406.0, 15405.0, 15403.0, 15383.0, 15392.0, 15398.0, 15391.0, 15396.0, 15389.0, 15376.0, 15374.0, 15385.0, 15387.0, 15379.0, 15386.0, 15377.0, 15359.0, 15368.0, 15353.0, 15360.0, 15364.0, 15354.0, 15359.0, 15358.0, 15364.0, 15363.0, 15360.0, 15358.0, 15356.0, 15347.0, 15345.0, 15359.0, 15359.0, 15356.0, 15375.0, 15364.0, 15360.0, 15350.0, 15363.0, 15352.0, 15350.0, 15334.0, 15333.0, 15345.0, 15350.0, 15335.0, 15344.0, 15342.0, 15343.0, 15337.0, 15335.0, 15341.0, 15327.0, 15331.0, 15339.0, 15329.0, 15334.0, 15356.0, 15349.0, 15336.0, 15340.0, 15331.0, 15325.0, 15341.0, 15343.0, 15335.0, 15341.0, 15328.0, 15333.0, 15348.0, 15342.0, 15333.0, 15311.0, 15321.0, 15322.0, 15332.0, 15329.0, 15332.0, 15326.0, 15335.0, 15318.0, 15334.0, 15321.0, 15342.0, 15339.0, 15343.0, 15336.0, 15347.0, 15363.0, 15348.0, 15324.0, 15335.0, 15345.0, 15343.0, 15334.0, 15330.0, 15339.0, 15348.0, 15326.0, 15339.0, 15348.0, 15354.0, 15343.0, 15330.0, 15340.0, 15337.0, 15358.0, 15338.0, 15341.0, 15353.0, 15349.0, 15346.0, 15360.0, 15340.0, 15344.0, 15350.0, 15335.0, 15351.0, 15350.0, 15361.0, 15340.0, 15337.0, 15344.0, 15357.0, 15349.0, 15355.0, 15357.0, 15342.0, 15334.0, 15360.0, 15339.0, 15361.0, 15336.0, 15336.0, 15346.0, 15347.0, 15329.0, 15359.0, 15325.0, 15348.0, 15337.0, 15342.0, 15347.0, 15320.0, 15342.0, 15337.0, 15351.0, 15343.0, 15351.0, 15349.0, 15343.0, 15339.0, 15336.0, 15347.0, 15338.0, 15346.0, 15319.0, 15337.0, 15331.0, 15348.0, 15348.0, 15348.0, 15339.0, 15342.0, 15352.0, 15343.0, 15345.0, 15349.0, 15357.0, 15344.0, 15345.0, 15354.0, 15347.0, 15358.0, 15338.0, 15332.0, 15320.0, 15338.0, 15350.0, 15347.0, 15341.0, 15362.0, 15336.0, 15351.0, 15327.0, 15342.0, 15352.0, 15366.0, 15358.0, 15347.0, 15334.0, 15361.0, 15361.0, 15364.0, 15361.0, 15361.0, 15359.0, 15351.0, 15372.0, 15366.0, 15376.0, 15378.0, 15378.0, 15368.0, 15390.0, 15361.0, 15362.0, 15365.0, 15370.0, 15366.0, 15372.0, 15361.0, 15339.0, 15355.0],
      "WindowWidth": [46683.0, 46654.0, 46684.0, 46660.0, 46617.0, 46618.0, 46645.0, 46657.0, 46650.0, 46583.0, 46504.0, 46482.0, 46464.0, 46451.0, 46452.0, 46515.0, 46503.0, 46452.0, 46474.0, 46481.0, 46538.0, 46546.0, 46531.0, 46524.0, 46511.0, 46546.0, 46510.0, 46522.0, 46512.0, 46480.0, 46466.0, 46465.0, 46492.0, 46528.0, 46499.0, 46478.0, 46493.0, 46491.0, 46452.0, 46457.0, 46467.0, 46487.0, 46469.0, 46489.0, 46500.0, 46472.0, 46431.0, 46441.0, 46459.0, 46474.0, 46441.0, 46425.0, 46440.0, 46447.0, 46432.0, 46394.0, 46383.0, 46372.0, 46394.0, 46470.0, 46503.0, 46424.0, 46404.0, 46422.0, 46451.0, 46459.0, 46524.0, 46481.0, 46467.0, 46435.0, 46440.0, 46471.0, 46546.0, 46502.0, 46481.0, 46418.0, 46455.0, 46449.0, 46380.0, 46372.0, 46429.0, 46486.0, 46481.0, 46418.0, 46476.0, 46532.0, 46506.0, 46381.0, 46335.0, 46397.0, 46520.0, 46543.0, 46455.0, 46398.0, 46382.0, 46405.0, 46416.0, 46427.0, 46446.0, 46469.0, 46436.0, 46413.0, 46381.0, 46409.0, 46401.0, 46377.0, 46396.0, 46428.0, 46391.0, 46333.0, 46380.0, 46435.0, 46395.0, 46362.0, 46373.0, 46427.0, 46412.0, 46422.0, 46399.0, 46431.0, 46419.0, 46445.0, 46432.0, 46354.0, 46338.0, 46421.0, 46469.0, 46464.0, 46445.0, 46406.0, 46364.0, 46423.0, 46474.0, 46480.0, 46450.0, 46453.0, 46476.0, 46417.0, 46356.0, 46385.0, 46429.0, 46451.0, 46481.0, 46485.0, 46506.0, 46495.0, 46470.0, 46446.0, 46394.0, 46418.0, 46445.0, 46441.0, 46447.0, 46433.0, 46411.0, 46409.0, 46406.0, 46429.0, 46420.0, 46369.0, 46360.0, 46376.0, 46457.0, 46513.0, 46399.0, 46355.0, 46364.0, 46365.0, 46303.0, 46338.0, 46369.0, 46329.0, 46308.0, 46354.0, 46397.0, 46391.0, 46370.0, 46307.0, 46334.0, 46357.0, 46391.0, 46420.0, 46428.0, 46384.0, 46392.0, 46382.0, 46375.0, 46373.0, 46370.0, 46352.0, 46346.0, 46343.0, 46352.0, 46357.0, 46346.0, 46382.0, 46425.0, 46427.0, 46352.0, 46283.0, 46280.0, 46302.0, 46303.0, 46343.0, 46379.0, 46382.0, 46382.0, 46446.0, 46435.0, 46424.0, 46339.0, 46341.0, 46362.0, 46399.0, 46365.0, 46396.0, 46440.0, 46508.0]
    },
    "slices": {}
  }
}