{
  "AcquisitionMatrixPE": 116,
  "AcquisitionNumber": 1,
  "AcquisitionTime": "10:46:6.222500",
  "BandwidthPerPixelPhaseEncode": 18.539,
  "BaseResolution": 116,
  "BodyPartExamined": "HEAD",
  "ConsistencyInfo": "N4_VD13D_LATEST_20130810",
  "ConversionSoftware": "dcm2niix",
  "ConversionSoftwareVersion": "v1.0.20190410  (JP2:OpenJPEG) (JP-LS:CharLS) GCC5.5.0",
  "DerivedVendorReportedEchoSpacing": 0.000930006,
  "DeviceSerialNumber": "66014",
  "DwellTime": 3e-06,
  "EchoTime": 0.03,
  "EchoTrainLength": 50,
  "EffectiveEchoSpacing": 0.000465003,
  "FlipAngle": 81,
  "ImageComments": "Unaliased_MB3_PE4",
  "ImageOrientationPatientDICOM": [0.99912, -0.0417736, 0.00365168, 0.0418756, 0.998516, -0.0348112],
  "ImageType": [
    "ORIGINAL",
    "PRIMARY",
    "M",
    "MB",
    "ND",
    "MOSAIC"
],
  "ImagingFrequency": 123.261,
  "InPlanePhaseEncodingDirectionDICOM": "COL",
  "InstitutionAddress": "Yiheyuan_Road_5_Beijing_Haidian_CN_100871",
  "InstitutionName": "Peking_Univeristy",
  "InstitutionalDepartmentName": "Department",
  "MRAcquisitionType": "2D",
  "MagneticFieldStrength": 3,
  "Manufacturer": "Siemens",
  "ManufacturersModelName": "Prisma",
  "Modality": "MR",
  "MultibandAccelerationFactor": 3,
  "ParallelReductionFactorInPlane": 2,
  "PartialFourier": 0.875,
  "PatientPosition": "HFS",
  "PercentPhaseFOV": 100,
  "PhaseEncodingDirection": "j-",
  "PhaseEncodingSteps": 101,
  "PhaseResolution": 1,
  "PixelBandwidth": 1435,
  "ProcedureStepDescription": "Research_Projects_64CH",
  "ProtocolName": "mbep2d_bold_MB3_learn2",
  "PulseSequenceDetails": "%CustomerSeq%_cmrr_mbep2d_bold",
  "ReceiveCoilActiveElements": "HC1-6",
  "ReceiveCoilName": "HeadNeck_64",
  "ReconMatrixPE": 116,
  "RefLinesPE": 44,
  "RepetitionTime": 2,
  "SAR": 0.0545382,
  "ScanOptions": "PFP_FS",
  "ScanningSequence": "EP",
  "SequenceName": "epfid2d1_116",
  "SequenceVariant": "SK_SS",
  "SeriesDescription": "mbep2d_bold_MB3_learn2",
  "SeriesNumber": 6,
  "ShimSetting": [-3438, -2137, -1962, 221, 29, -304, 54, 31],
  "SliceThickness": 1.9,
  "SliceTiming": [0, 0.9075, 1.815, 0.7425, 1.65, 0.5775, 1.485, 0.4125, 1.32, 0.2475, 1.155, 0.0825, 0.99, 1.8975, 0.825, 1.7325, 0.66, 1.5675, 0.495, 1.4025, 0.33, 1.2375, 0.165, 1.0725, 0, 0.9075, 1.815, 0.7425, 1.65, 0.5775, 1.485, 0.4125, 1.32, 0.2475, 1.155, 0.0825, 0.99, 1.8975, 0.825, 1.7325, 0.66, 1.5675, 0.495, 1.4025, 0.33, 1.2375, 0.165, 1.0725, 0, 0.9075, 1.815, 0.7425, 1.65, 0.5775, 1.485, 0.4125, 1.32, 0.2475, 1.155, 0.0825, 0.99, 1.8975, 0.825, 1.7325, 0.66, 1.5675, 0.495, 1.4025, 0.33, 1.2375, 0.165, 1.0725],
  "SoftwareVersions": "syngo_MR_D13D",
  "SpacingBetweenSlices": 1.9,
  "StationName": "AWP66014",
  "TaskName": "updating",
  "TotalReadoutTime": 0.0534753,
  "TxRefAmp": 214.62,
  "WipMemBlock": "eca30b7c-56a6-4e17-9525-e142211f5212||Sequence: vd13d/master r/0735857; Nov 19 2014 09:21:40 by eja",
  "dcmmeta_affine": [
    [-1.894883632659912, 0.07941924780607224, 0.004164930898696184, 102.74943542480469],
    [0.07922586053609848, 1.8937376737594604, -0.06637360155582428, -104.90525817871094],
    [0.006925593595951796, 0.06602120399475098, 1.8988357782363892, -59.242698669433594],
    [0.0, 0.0, 0.0, 1.0]
],
  "dcmmeta_reorient_transform": [
    [0.0, -1.0, 0.0, 115.0],
    [1.0, 0.0, 0.0, 0.0],
    [0.0, 0.0, 1.0, 0.0],
    [0.0, 0.0, 0.0, 1.0]
],
  "dcmmeta_shape": [116, 116, 72, 218],
  "dcmmeta_slice_dim": 2,
  "dcmmeta_version": 0.6,
  "global": {
    "const": {
      "AcquisitionMatrix": [116, 0, 0, 116],
      "AngioFlag": "N",
      "BitsAllocated": 16,
      "BitsStored": 16,
      "BodyPartExamined": "HEAD",
      "Columns": 1044,
      "EchoNumbers": 1,
      "EchoTime": 30.0,
      "EchoTrainLength": 50,
      "FlipAngle": 81.0,
      "HighBit": 15,
      "ImageOrientationPatient": [0.99912042747665, -0.0417736359006, 0.00365167667281, 0.04187560427125, 0.99851620698429, -0.0348111786158],
      "ImagePositionPatient": [-1027.9591560635, -954.80803097451, -24.229897575039],
      "ImageType": [
        "ORIGINAL",
        "PRIMARY",
        "M",
        "MB",
        "ND",
        "MOSAIC"
],
      "ImagedNucleus": "1H",
      "ImagingFrequency": 123.260555,
      "InPlanePhaseEncodingDirection": "COL",
      "LargestImagePixelValue": 65535,
      "MRAcquisitionType": "2D",
      "MagneticFieldStrength": 3.0,
      "Manufacturer": "SIEMENS",
      "ManufacturerModelName": "Prisma",
      "Modality": "MR",
      "NumberOfAverages": 1.0,
      "NumberOfPhaseEncodingSteps": 101,
      "PercentPhaseFieldOfView": 100.0,
      "PercentSampling": 100.0,
      "PerformedProcedureStepStartTime": "102638.736000",
      "PhotometricInterpretation": "MONOCHROME2",
      "PixelBandwidth": 1435.0,
      "PixelRepresentation": 0,
      "PixelSpacing": [1.8965517282486, 1.8965517282486],
      "ProtocolName": "mbep2d_bold_MB3_learn2",
      "RepetitionTime": 2000.0,
      "Rows": 1044,
      "SAR": 0.05453824410052,
      "SamplesPerPixel": 1,
      "ScanOptions": [
        "PFP",
        "FS"
],
      "ScanningSequence": "EP",
      "SequenceName": "epfid2d1_116",
      "SequenceVariant": [
        "SK",
        "SS"
],
      "SeriesDescription": "mbep2d_bold_MB3_learn2",
      "SeriesNumber": 6,
      "SeriesTime": "104617.238000",
      "SliceLocation": -55.316456396309,
      "SliceThickness": 1.8999999761581,
      "SmallestImagePixelValue": 0,
      "SoftwareVersions": "syngo MR D13D",
      "SpacingBetweenSlices": 1.8999999848508,
      "SpecificCharacterSet": "ISO_IR 100",
      "StudyID": "2",
      "StudyTime": "102638.602000",
      "TimeOfLastCalibration": ["123723.000000", "123723.000000"],
      "TransmitCoilName": "Body",
      "VariableFlipAngleFlag": "N",
      "WindowCenterWidthExplanation": "Algo1",
      "dBdt": 0.0},
    "slices": {}
  },
  "time": {
    "samples": {
      "AcquisitionNumber": [1, 2, 3, 4, 5, 6, 7, 8, 9, 10, 11, 12, 13, 14, 15, 16, 17, 18, 19, 20, 21, 22, 23, 24, 25, 26, 27, 28, 29, 30, 31, 32, 33, 34, 35, 36, 37, 38, 39, 40, 41, 42, 43, 44, 45, 46, 47, 48, 49, 50, 51, 52, 53, 54, 55, 56, 57, 58, 59, 60, 61, 62, 63, 64, 65, 66, 67, 68, 69, 70, 71, 72, 73, 74, 75, 76, 77, 78, 79, 80, 81, 82, 83, 84, 85, 86, 87, 88, 89, 90, 91, 92, 93, 94, 95, 96, 97, 98, 99, 100, 101, 102, 103, 104, 105, 106, 107, 108, 109, 110, 111, 112, 113, 114, 115, 116, 117, 118, 119, 120, 121, 122, 123, 124, 125, 126, 127, 128, 129, 130, 131, 132, 133, 134, 135, 136, 137, 138, 139, 140, 141, 142, 143, 144, 145, 146, 147, 148, 149, 150, 151, 152, 153, 154, 155, 156, 157, 158, 159, 160, 161, 162, 163, 164, 165, 166, 167, 168, 169, 170, 171, 172, 173, 174, 175, 176, 177, 178, 179, 180, 181, 182, 183, 184, 185, 186, 187, 188, 189, 190, 191, 192, 193, 194, 195, 196, 197, 198, 199, 200, 201, 202, 203, 204, 205, 206, 207, 208, 209, 210, 211, 212, 213, 214, 215, 216, 217, 218],
      "AcquisitionTime": ["104606.222500", "104608.222500", "104610.222500", "104612.222500", "104614.222500", "104616.222500", "104618.222500", "104620.222500", "104622.222500", "104624.222500", "104626.222500", "104628.222500", "104630.222500", "104632.222500", "104634.222500", "104636.222500", "104638.222500", "104640.222500", "104642.222500", "104644.222500", "104646.222500", "104648.225000", "104650.225000", "104652.225000", "104654.225000", "104656.225000", "104658.225000", "104700.225000", "104702.225000", "104704.225000", "104706.225000", "104708.225000", "104710.225000", "104712.225000", "104714.225000", "104716.225000", "104718.225000", "104720.225000", "104722.225000", "104724.225000", "104726.225000", "104728.225000", "104730.225000", "104732.225000", "104734.225000", "104736.225000", "104738.225000", "104740.225000", "104742.225000", "104744.225000", "104746.225000", "104748.225000", "104750.225000", "104752.225000", "104754.225000", "104756.225000", "104758.225000", "104800.225000", "104802.225000", "104804.225000", "104806.225000", "104808.225000", "104810.225000", "104812.225000", "104814.225000", "104816.225000", "104818.225000", "104820.225000", "104822.225000", "104824.225000", "104826.225000", "104828.225000", "104830.225000", "104832.225000", "104834.225000", "104836.225000", "104838.225000", "104840.225000", "104842.225000", "104844.225000", "104846.225000", "104848.225000", "104850.225000", "104852.225000", "104854.225000", "104856.225000", "104858.225000", "104900.225000", "104902.225000", "104904.225000", "104906.225000", "104908.225000", "104910.225000", "104912.225000", "104914.225000", "104916.225000", "104918.225000", "104920.225000", "104922.225000", "104924.225000", "104926.225000", "104928.225000", "104930.225000", "104932.225000", "104934.225000", "104936.225000", "104938.225000", "104940.225000", "104942.225000", "104944.225000", "104946.225000", "104948.225000", "104950.225000", "104952.225000", "104954.225000", "104956.225000", "104958.225000", "105000.225000", "105002.225000", "105004.225000", "105006.225000", "105008.225000", "105010.225000", "105012.225000", "105014.225000", "105016.225000", "105018.225000", "105020.225000", "105022.225000", "105024.225000", "105026.225000", "105028.225000", "105030.225000", "105032.225000", "105034.225000", "105036.225000", "105038.225000", "105040.225000", "105042.225000", "105044.225000", "105046.225000", "105048.225000", "105050.225000", "105052.225000", "105054.225000", "105056.225000", "105058.225000", "105100.225000", "105102.225000", "105104.225000", "105106.225000", "105108.225000", "105110.225000", "105112.225000", "105114.225000", "105116.225000", "105118.225000", "105120.225000", "105122.225000", "105124.225000", "105126.225000", "105128.225000", "105130.225000", "105132.225000", "105134.225000", "105136.225000", "105138.225000", "105140.225000", "105142.225000", "105144.225000", "105146.225000", "105148.225000", "105150.225000", "105152.225000", "105154.225000", "105156.225000", "105158.225000", "105200.225000", "105202.225000", "105204.225000", "105206.225000", "105208.225000", "105210.225000", "105212.225000", "105214.225000", "105216.225000", "105218.225000", "105220.225000", "105222.225000", "105224.225000", "105226.225000", "105228.225000", "105230.225000", "105232.225000", "105234.225000", "105236.225000", "105238.225000", "105240.225000", "105242.225000", "105244.225000", "105246.225000", "105248.225000", "105250.225000", "105252.225000", "105254.225000", "105256.225000", "105258.225000", "105300.225000", "105302.225000", "105304.225000", "105306.225000", "105308.225000", "105310.225000", "105312.225000", "105314.225000", "105316.225000", "105318.225000", "105320.225000"],
      "ContentTime": ["104617.244000", "104618.237000", "104618.241000", "104619.237000", "104619.242000", "104620.237000", "104621.237000", "104622.738000", "104624.737000", "104626.737000", "104628.738000", "104630.738000", "104632.738000", "104634.736000", "104636.739000", "104638.739000", "104640.739000", "104642.739000", "104644.738000", "104646.737000", "104648.737000", "104650.737000", "104652.737000", "104654.737000", "104656.738000", "104658.738000", "104700.738000", "104702.738000", "104704.736000", "104706.737000", "104708.737000", "104710.757000", "104712.739000", "104714.737000", "104716.739000", "104718.739000", "104720.739000", "104722.738000", "104724.736000", "104726.738000", "104728.738000", "104730.739000", "104732.739000", "104734.737000", "104736.738000", "104738.738000", "104740.738000", "104742.738000", "104744.736000", "104746.739000", "104748.739000", "104750.738000", "104752.739000", "104754.737000", "104756.738000", "104758.738000", "104800.738000", "104802.739000", "104804.737000", "104806.739000", "104808.739000", "104810.739000", "104812.739000", "104814.736000", "104816.737000", "104818.738000", "104820.738000", "104822.738000", "104824.737000", "104826.738000", "104828.739000", "104830.739000", "104832.738000", "104834.736000", "104836.738000", "104838.737000", "104840.739000", "104842.739000", "104844.737000", "104846.739000", "104848.738000", "104850.737000", "104852.738000", "104854.736000", "104856.739000", "104858.739000", "104900.739000", "104902.738000", "104904.737000", "104906.738000", "104908.738000", "104910.738000", "104912.738000", "104914.737000", "104916.739000", "104918.739000", "104920.740000", "104922.740000", "104924.736000", "104926.738000", "104928.737000", "104930.738000", "104932.739000", "104934.737000", "104936.739000", "104938.739000", "104940.739000", "104942.737000", "104944.736000", "104946.737000", "104948.738000", "104950.739000", "104952.739000", "104954.737000", "104956.739000", "104958.738000", "105000.738000", "105002.737000", "105004.736000", "105006.739000", "105008.739000", "105010.747000", "105012.739000", "105014.737000", "105016.738000", "105018.739000", "105020.737000", "105022.738000", "105024.738000", "105026.738000", "105028.738000", "105030.739000", "105032.739000", "105034.736000", "105036.738000", "105038.738000", "105040.738000", "105042.739000", "105044.737000", "105046.738000", "105048.739000", "105050.739000", "105052.738000", "105054.736000", "105056.738000", "105058.738000", "105100.739000", "105102.738000", "105104.737000", "105106.739000", "105108.738000", "105110.738000", "105112.738000", "105114.736000", "105116.739000", "105118.739000", "105120.740000", "105122.737000", "105124.737000", "105126.738000", "105128.739000", "105130.738000", "105132.738000", "105134.737000", "105136.739000", "105138.739000", "105140.740000", "105142.738000", "105144.736000", "105146.738000", "105148.738000", "105150.738000", "105152.739000", "105154.737000", "105156.738000", "105158.739000", "105200.741000", "105202.742000", "105204.736000", "105206.741000", "105208.738000", "105210.739000", "105212.739000", "105214.737000", "105216.739000", "105218.739000", "105220.737000", "105222.738000", "105224.736000", "105226.739000", "105228.739000", "105230.739000", "105232.739000", "105234.737000", "105236.738000", "105238.738000", "105240.738000", "105242.738000", "105244.737000", "105246.739000", "105248.739000", "105250.739000", "105252.739000", "105254.736000", "105256.738000", "105258.738000", "105300.738000", "105302.739000", "105304.737000", "105306.740000", "105308.740000", "105310.739000", "105312.738000", "105314.736000", "105316.738000", "105318.738000", "105320.739000", "105322.367000"],
      "InstanceCreationTime": ["104617.244000", "104618.237000", "104618.241000", "104619.237000", "104619.242000", "104620.237000", "104621.237000", "104622.738000", "104624.737000", "104626.737000", "104628.738000", "104630.738000", "104632.738000", "104634.736000", "104636.739000", "104638.739000", "104640.739000", "104642.739000", "104644.738000", "104646.737000", "104648.737000", "104650.737000", "104652.737000", "104654.737000", "104656.738000", "104658.738000", "104700.738000", "104702.738000", "104704.736000", "104706.737000", "104708.737000", "104710.757000", "104712.739000", "104714.737000", "104716.739000", "104718.739000", "104720.739000", "104722.738000", "104724.736000", "104726.738000", "104728.738000", "104730.739000", "104732.739000", "104734.737000", "104736.738000", "104738.738000", "104740.738000", "104742.738000", "104744.736000", "104746.739000", "104748.739000", "104750.738000", "104752.739000", "104754.737000", "104756.738000", "104758.738000", "104800.738000", "104802.739000", "104804.737000", "104806.739000", "104808.739000", "104810.739000", "104812.739000", "104814.736000", "104816.737000", "104818.738000", "104820.738000", "104822.738000", "104824.737000", "104826.738000", "104828.739000", "104830.739000", "104832.738000", "104834.736000", "104836.738000", "104838.737000", "104840.739000", "104842.739000", "104844.737000", "104846.739000", "104848.738000", "104850.737000", "104852.738000", "104854.736000", "104856.739000", "104858.739000", "104900.739000", "104902.738000", "104904.737000", "104906.738000", "104908.738000", "104910.738000", "104912.738000", "104914.737000", "104916.739000", "104918.739000", "104920.740000", "104922.740000", "104924.736000", "104926.738000", "104928.737000", "104930.738000", "104932.739000", "104934.737000", "104936.739000", "104938.739000", "104940.739000", "104942.737000", "104944.736000", "104946.737000", "104948.738000", "104950.739000", "104952.739000", "104954.737000", "104956.739000", "104958.738000", "105000.738000", "105002.737000", "105004.736000", "105006.739000", "105008.739000", "105010.747000", "105012.739000", "105014.737000", "105016.738000", "105018.739000", "105020.737000", "105022.738000", "105024.738000", "105026.738000", "105028.738000", "105030.739000", "105032.739000", "105034.736000", "105036.738000", "105038.738000", "105040.738000", "105042.739000", "105044.737000", "105046.738000", "105048.739000", "105050.739000", "105052.738000", "105054.736000", "105056.738000", "105058.738000", "105100.739000", "105102.738000", "105104.737000", "105106.739000", "105108.738000", "105110.738000", "105112.738000", "105114.736000", "105116.739000", "105118.739000", "105120.740000", "105122.737000", "105124.737000", "105126.738000", "105128.739000", "105130.738000", "105132.738000", "105134.737000", "105136.739000", "105138.739000", "105140.740000", "105142.738000", "105144.736000", "105146.738000", "105148.738000", "105150.738000", "105152.739000", "105154.737000", "105156.738000", "105158.739000", "105200.741000", "105202.742000", "105204.736000", "105206.741000", "105208.738000", "105210.739000", "105212.739000", "105214.737000", "105216.739000", "105218.739000", "105220.737000", "105222.738000", "105224.736000", "105226.739000", "105228.739000", "105230.739000", "105232.739000", "105234.737000", "105236.738000", "105238.738000", "105240.738000", "105242.738000", "105244.737000", "105246.739000", "105248.739000", "105250.739000", "105252.739000", "105254.736000", "105256.738000", "105258.738000", "105300.738000", "105302.739000", "105304.737000", "105306.740000", "105308.740000", "105310.739000", "105312.738000", "105314.736000", "105316.738000", "105318.738000", "105320.739000", "105322.367000"],
      "InstanceNumber": [1, 2, 3, 4, 5, 6, 7, 8, 9, 10, 11, 12, 13, 14, 15, 16, 17, 18, 19, 20, 21, 22, 23, 24, 25, 26, 27, 28, 29, 30, 31, 32, 33, 34, 35, 36, 37, 38, 39, 40, 41, 42, 43, 44, 45, 46, 47, 48, 49, 50, 51, 52, 53, 54, 55, 56, 57, 58, 59, 60, 61, 62, 63, 64, 65, 66, 67, 68, 69, 70, 71, 72, 73, 74, 75, 76, 77, 78, 79, 80, 81, 82, 83, 84, 85, 86, 87, 88, 89, 90, 91, 92, 93, 94, 95, 96, 97, 98, 99, 100, 101, 102, 103, 104, 105, 106, 107, 108, 109, 110, 111, 112, 113, 114, 115, 116, 117, 118, 119, 120, 121, 122, 123, 124, 125, 126, 127, 128, 129, 130, 131, 132, 133, 134, 135, 136, 137, 138, 139, 140, 141, 142, 143, 144, 145, 146, 147, 148, 149, 150, 151, 152, 153, 154, 155, 156, 157, 158, 159, 160, 161, 162, 163, 164, 165, 166, 167, 168, 169, 170, 171, 172, 173, 174, 175, 176, 177, 178, 179, 180, 181, 182, 183, 184, 185, 186, 187, 188, 189, 190, 191, 192, 193, 194, 195, 196, 197, 198, 199, 200, 201, 202, 203, 204, 205, 206, 207, 208, 209, 210, 211, 212, 213, 214, 215, 216, 217, 218],
      "WindowCenter": [15654.0, 15632.0, 15639.0, 15647.0, 15637.0, 15646.0, 15651.0, 15637.0, 15623.0, 15629.0, 15612.0, 15636.0, 15636.0, 15641.0, 15636.0, 15630.0, 15624.0, 15625.0, 15638.0, 15629.0, 15634.0, 15630.0, 15630.0, 15635.0, 15634.0, 15626.0, 15632.0, 15626.0, 15626.0, 15641.0, 15632.0, 15609.0, 15623.0, 15630.0, 15640.0, 15639.0, 15641.0, 15636.0, 15642.0, 15651.0, 15633.0, 15646.0, 15648.0, 15651.0, 15637.0, 15642.0, 15633.0, 15642.0, 15637.0, 15634.0, 15650.0, 15640.0, 15646.0, 15662.0, 15632.0, 15632.0, 15643.0, 15638.0, 15645.0, 15636.0, 15625.0, 15636.0, 15641.0, 15626.0, 15634.0, 15638.0, 15642.0, 15644.0, 15638.0, 15635.0, 15639.0, 15635.0, 15644.0, 15642.0, 15644.0, 15652.0, 15648.0, 15647.0, 15637.0, 15640.0, 15632.0, 15615.0, 15644.0, 15652.0, 15649.0, 15636.0, 15643.0, 15638.0, 15651.0, 15658.0, 15645.0, 15636.0, 15633.0, 15636.0, 15642.0, 15641.0, 15654.0, 15644.0, 15642.0, 15652.0, 15634.0, 15634.0, 15646.0, 15655.0, 15655.0, 15636.0, 15638.0, 15648.0, 15663.0, 15669.0, 15637.0, 15647.0, 15650.0, 15651.0, 15670.0, 15690.0, 15677.0, 15674.0, 15661.0, 15653.0, 15659.0, 15646.0, 15658.0, 15664.0, 15665.0, 15665.0, 15666.0, 15656.0, 15660.0, 15659.0, 15661.0, 15663.0, 15661.0, 15650.0, 15648.0, 15646.0, 15644.0, 15639.0, 15636.0, 15648.0, 15645.0, 15647.0, 15657.0, 15630.0, 15627.0, 15636.0, 15637.0, 15637.0, 15637.0, 15645.0, 15661.0, 15652.0, 15652.0, 15645.0, 15645.0, 15629.0, 15636.0, 15644.0, 15641.0, 15655.0, 15647.0, 15647.0, 15650.0, 15647.0, 15649.0, 15654.0, 15660.0, 15649.0, 15651.0, 15641.0, 15653.0, 15640.0, 15658.0, 15659.0, 15637.0, 15649.0, 15660.0, 15646.0, 15658.0, 15633.0, 15650.0, 15664.0, 15676.0, 15674.0, 15652.0, 15642.0, 15647.0, 15661.0, 15653.0, 15663.0, 15676.0, 15679.0, 15681.0, 15655.0, 15655.0, 15650.0, 15663.0, 15666.0, 15655.0, 15661.0, 15680.0, 15686.0, 15697.0, 15677.0, 15674.0, 15661.0, 15642.0, 15661.0, 15659.0, 15668.0, 15667.0, 15671.0, 15672.0, 15680.0, 15663.0, 15666.0, 15681.0, 15669.0],
      "WindowWidth": [44970.0, 44921.0, 44998.0, 45047.0, 45054.0, 45033.0, 45050.0, 44980.0, 44897.0, 44818.0, 44832.0, 44866.0, 44923.0, 44844.0, 44785.0, 44795.0, 44791.0, 44820.0, 44844.0, 44865.0, 44869.0, 44893.0, 44922.0, 44913.0, 44953.0, 44988.0, 44965.0, 44986.0, 44985.0, 44958.0, 44865.0, 44831.0, 44844.0, 44936.0, 45015.0, 44987.0, 44931.0, 44913.0, 44904.0, 44898.0, 44938.0, 44980.0, 44996.0, 44969.0, 44941.0, 44932.0, 44923.0, 44890.0, 44887.0, 44940.0, 44970.0, 44973.0, 44949.0, 44866.0, 44853.0, 44881.0, 44892.0, 44917.0, 44924.0, 44941.0, 44973.0, 45010.0, 44972.0, 44958.0, 44965.0, 44956.0, 44931.0, 44905.0, 44901.0, 44941.0, 44956.0, 44938.0, 44933.0, 44917.0, 44919.0, 44929.0, 44981.0, 45007.0, 44970.0, 44889.0, 44853.0, 44909.0, 44949.0, 44941.0, 44897.0, 44929.0, 44921.0, 44930.0, 44914.0, 44905.0, 44894.0, 44953.0, 44937.0, 44926.0, 44919.0, 44961.0, 44987.0, 44993.0, 45003.0, 44967.0, 44923.0, 44954.0, 45021.0, 45013.0, 44899.0, 44772.0, 44748.0, 44883.0, 44907.0, 44856.0, 44801.0, 44808.0, 44881.0, 44926.0, 44975.0, 45007.0, 44982.0, 44976.0, 44921.0, 44926.0, 44890.0, 44853.0, 44892.0, 44911.0, 44995.0, 44966.0, 44883.0, 44861.0, 44908.0, 44949.0, 44936.0, 44909.0, 44864.0, 44884.0, 44909.0, 44866.0, 44821.0, 44817.0, 44815.0, 44839.0, 44837.0, 44840.0, 44807.0, 44755.0, 44668.0, 44649.0, 44720.0, 44790.0, 44861.0, 44882.0, 44841.0, 44858.0, 44831.0, 44810.0, 44783.0, 44781.0, 44775.0, 44838.0, 44891.0, 44835.0, 44869.0, 44869.0, 44872.0, 44881.0, 44840.0, 44844.0, 44852.0, 44884.0, 44884.0, 44876.0, 44900.0, 44918.0, 44936.0, 44937.0, 44942.0, 44938.0, 44933.0, 44920.0, 44876.0, 44857.0, 44913.0, 44969.0, 44993.0, 44920.0, 44843.0, 44836.0, 44826.0, 44810.0, 44931.0, 44995.0, 45019.0, 44882.0, 44729.0, 44706.0, 44860.0, 44899.0, 44854.0, 44884.0, 44862.0, 44884.0, 44985.0, 45035.0, 45027.0, 44934.0, 44875.0, 44907.0, 44879.0, 44922.0, 44962.0, 44928.0, 44943.0, 44973.0, 44947.0, 44925.0, 44936.0, 44924.0, 44899.0, 44959.0]
    },
    "slices": {}
  }
}