{
  "AcquisitionMatrixPE": 116,
  "AcquisitionNumber": 1,
  "AcquisitionTime": "11:19:2.755000",
  "BandwidthPerPixelPhaseEncode": 18.539,
  "BaseResolution": 116,
  "BodyPartExamined": "HEAD",
  "ConsistencyInfo": "N4_VD13D_LATEST_20130810",
  "ConversionSoftware": "dcm2niix",
  "ConversionSoftwareVersion": "v1.0.20190410  (JP2:OpenJPEG) (JP-LS:CharLS) GCC5.5.0",
  "DerivedVendorReportedEchoSpacing": 0.000930006,
  "DeviceSerialNumber": "66014",
  "DwellTime": 3e-06,
  "EchoTime": 0.03,
  "EchoTrainLength": 50,
  "EffectiveEchoSpacing": 0.000465003,
  "FlipAngle": 81,
  "ImageComments": "Unaliased_MB3_PE4",
  "ImageOrientationPatientDICOM": [0.99912, -0.0417736, 0.00365168, 0.0418756, 0.998516, -0.0348112],
  "ImageType": [
    "ORIGINAL",
    "PRIMARY",
    "M",
    "MB",
    "ND",
    "MOSAIC"
],
  "ImagingFrequency": 123.261,
  "InPlanePhaseEncodingDirectionDICOM": "COL",
  "InstitutionAddress": "Yiheyuan_Road_5_Beijing_Haidian_CN_100871",
  "InstitutionName": "Peking_Univeristy",
  "InstitutionalDepartmentName": "Department",
  "MRAcquisitionType": "2D",
  "MagneticFieldStrength": 3,
  "Manufacturer": "Siemens",
  "ManufacturersModelName": "Prisma",
  "Modality": "MR",
  "MultibandAccelerationFactor": 3,
  "ParallelReductionFactorInPlane": 2,
  "PartialFourier": 0.875,
  "PatientPosition": "HFS",
  "PercentPhaseFOV": 100,
  "PhaseEncodingDirection": "j-",
  "PhaseEncodingSteps": 101,
  "PhaseResolution": 1,
  "PixelBandwidth": 1435,
  "ProcedureStepDescription": "Research_Projects_64CH",
  "ProtocolName": "mbep2d_bold_MB3_learn6",
  "PulseSequenceDetails": "%CustomerSeq%_cmrr_mbep2d_bold",
  "ReceiveCoilActiveElements": "HC1-6",
  "ReceiveCoilName": "HeadNeck_64",
  "ReconMatrixPE": 116,
  "RefLinesPE": 44,
  "RepetitionTime": 2,
  "SAR": 0.0545382,
  "ScanOptions": "PFP_FS",
  "ScanningSequence": "EP",
  "SequenceName": "epfid2d1_116",
  "SequenceVariant": "SK_SS",
  "SeriesDescription": "mbep2d_bold_MB3_learn6",
  "SeriesNumber": 10,
  "ShimSetting": [-3438, -2137, -1962, 221, 29, -304, 54, 31],
  "SliceThickness": 1.9,
  "SliceTiming": [0, 0.9075, 1.815, 0.7425, 1.65, 0.5775, 1.485, 0.4125, 1.32, 0.2475, 1.155, 0.0825, 0.99, 1.8975, 0.825, 1.7325, 0.66, 1.5675, 0.495, 1.4025, 0.33, 1.2375, 0.165, 1.0725, 0, 0.9075, 1.815, 0.7425, 1.65, 0.5775, 1.485, 0.4125, 1.32, 0.2475, 1.155, 0.0825, 0.99, 1.8975, 0.825, 1.7325, 0.66, 1.5675, 0.495, 1.4025, 0.33, 1.2375, 0.165, 1.0725, 0, 0.9075, 1.815, 0.7425, 1.65, 0.5775, 1.485, 0.4125, 1.32, 0.2475, 1.155, 0.0825, 0.99, 1.8975, 0.825, 1.7325, 0.66, 1.5675, 0.495, 1.4025, 0.33, 1.2375, 0.165, 1.0725],
  "SoftwareVersions": "syngo_MR_D13D",
  "SpacingBetweenSlices": 1.9,
  "StationName": "AWP66014",
  "TaskName": "updating",
  "TotalReadoutTime": 0.0534753,
  "TxRefAmp": 214.62,
  "WipMemBlock": "ed3fc9d0-2511-4f30-80da-8f521cb90bbe||Sequence: vd13d/master r/0735857; Nov 19 2014 09:21:40 by eja",
  "dcmmeta_affine": [
    [-1.894883632659912, 0.07941924780607224, 0.004164930898696184, 102.74943542480469],
    [0.07922586053609848, 1.8937376737594604, -0.06637360155582428, -104.90525817871094],
    [0.006925593595951796, 0.06602120399475098, 1.8988357782363892, -59.242698669433594],
    [0.0, 0.0, 0.0, 1.0]
],
  "dcmmeta_reorient_transform": [
    [0.0, -1.0, 0.0, 115.0],
    [1.0, 0.0, 0.0, 0.0],
    [0.0, 0.0, 1.0, 0.0],
    [0.0, 0.0, 0.0, 1.0]
],
  "dcmmeta_shape": [116, 116, 72, 218],
  "dcmmeta_slice_dim": 2,
  "dcmmeta_version": 0.6,
  "global": {
    "const": {
      "AcquisitionMatrix": [116, 0, 0, 116],
      "AngioFlag": "N",
      "BitsAllocated": 16,
      "BitsStored": 16,
      "BodyPartExamined": "HEAD",
      "Columns": 1044,
      "EchoNumbers": 1,
      "EchoTime": 30.0,
      "EchoTrainLength": 50,
      "FlipAngle": 81.0,
      "HighBit": 15,
      "ImageOrientationPatient": [0.99912042747665, -0.0417736359006, 0.00365167667281, 0.04187560427125, 0.99851620698429, -0.0348111786158],
      "ImagePositionPatient": [-1027.9591560635, -954.80803097451, -24.229897575039],
      "ImageType": [
        "ORIGINAL",
        "PRIMARY",
        "M",
        "MB",
        "ND",
        "MOSAIC"
],
      "ImagedNucleus": "1H",
      "ImagingFrequency": 123.260554,
      "InPlanePhaseEncodingDirection": "COL",
      "LargestImagePixelValue": 65535,
      "MRAcquisitionType": "2D",
      "MagneticFieldStrength": 3.0,
      "Manufacturer": "SIEMENS",
      "ManufacturerModelName": "Prisma",
      "Modality": "MR",
      "NumberOfAverages": 1.0,
      "NumberOfPhaseEncodingSteps": 101,
      "PercentPhaseFieldOfView": 100.0,
      "PercentSampling": 100.0,
      "PerformedProcedureStepStartTime": "102638.736000",
      "PhotometricInterpretation": "MONOCHROME2",
      "PixelBandwidth": 1435.0,
      "PixelRepresentation": 0,
      "PixelSpacing": [1.8965517282486, 1.8965517282486],
      "ProtocolName": "mbep2d_bold_MB3_learn6",
      "RepetitionTime": 2000.0,
      "Rows": 1044,
      "SAR": 0.05453824410052,
      "SamplesPerPixel": 1,
      "ScanOptions": [
        "PFP",
        "FS"
],
      "ScanningSequence": "EP",
      "SequenceName": "epfid2d1_116",
      "SequenceVariant": [
        "SK",
        "SS"
],
      "SeriesDescription": "mbep2d_bold_MB3_learn6",
      "SeriesNumber": 10,
      "SeriesTime": "111914.722000",
      "SliceLocation": -55.316456396309,
      "SliceThickness": 1.8999999761581,
      "SmallestImagePixelValue": 0,
      "SoftwareVersions": "syngo MR D13D",
      "SpacingBetweenSlices": 1.8999999848508,
      "SpecificCharacterSet": "ISO_IR 100",
      "StudyID": "2",
      "StudyTime": "102638.602000",
      "TimeOfLastCalibration": ["123723.000000", "123723.000000"],
      "TransmitCoilName": "Body",
      "VariableFlipAngleFlag": "N",
      "WindowCenterWidthExplanation": "Algo1",
      "dBdt": 0.0},
    "slices": {}
  },
  "time": {
    "samples": {
      "AcquisitionNumber": [1, 2, 3, 4, 5, 6, 7, 8, 9, 10, 11, 12, 13, 14, 15, 16, 17, 18, 19, 20, 21, 22, 23, 24, 25, 26, 27, 28, 29, 30, 31, 32, 33, 34, 35, 36, 37, 38, 39, 40, 41, 42, 43, 44, 45, 46, 47, 48, 49, 50, 51, 52, 53, 54, 55, 56, 57, 58, 59, 60, 61, 62, 63, 64, 65, 66, 67, 68, 69, 70, 71, 72, 73, 74, 75, 76, 77, 78, 79, 80, 81, 82, 83, 84, 85, 86, 87, 88, 89, 90, 91, 92, 93, 94, 95, 96, 97, 98, 99, 100, 101, 102, 103, 104, 105, 106, 107, 108, 109, 110, 111, 112, 113, 114, 115, 116, 117, 118, 119, 120, 121, 122, 123, 124, 125, 126, 127, 128, 129, 130, 131, 132, 133, 134, 135, 136, 137, 138, 139, 140, 141, 142, 143, 144, 145, 146, 147, 148, 149, 150, 151, 152, 153, 154, 155, 156, 157, 158, 159, 160, 161, 162, 163, 164, 165, 166, 167, 168, 169, 170, 171, 172, 173, 174, 175, 176, 177, 178, 179, 180, 181, 182, 183, 184, 185, 186, 187, 188, 189, 190, 191, 192, 193, 194, 195, 196, 197, 198, 199, 200, 201, 202, 203, 204, 205, 206, 207, 208, 209, 210, 211, 212, 213, 214, 215, 216, 217, 218],
      "AcquisitionTime": ["111902.755000", "111904.755000", "111906.755000", "111908.755000", "111910.755000", "111912.755000", "111914.755000", "111916.755000", "111918.755000", "111920.755000", "111922.755000", "111924.755000", "111926.755000", "111928.755000", "111930.755000", "111932.755000", "111934.755000", "111936.755000", "111938.755000", "111940.755000", "111942.755000", "111944.755000", "111946.755000", "111948.755000", "111950.755000", "111952.755000", "111954.755000", "111956.755000", "111958.755000", "112000.755000", "112002.755000", "112004.755000", "112006.755000", "112008.755000", "112010.755000", "112012.755000", "112014.755000", "112016.755000", "112018.755000", "112020.755000", "112022.755000", "112024.755000", "112026.755000", "112028.755000", "112030.755000", "112032.755000", "112034.755000", "112036.755000", "112038.755000", "112040.755000", "112042.755000", "112044.755000", "112046.755000", "112048.755000", "112050.755000", "112052.755000", "112054.755000", "112056.755000", "112058.755000", "112100.755000", "112102.755000", "112104.755000", "112106.755000", "112108.755000", "112110.755000", "112112.755000", "112114.755000", "112116.755000", "112118.755000", "112120.755000", "112122.755000", "112124.755000", "112126.755000", "112128.755000", "112130.757500", "112132.757500", "112134.757500", "112136.757500", "112138.757500", "112140.757500", "112142.757500", "112144.757500", "112146.757500", "112148.757500", "112150.757500", "112152.757500", "112154.757500", "112156.757500", "112158.757500", "112200.757500", "112202.757500", "112204.757500", "112206.757500", "112208.757500", "112210.757500", "112212.757500", "112214.757500", "112216.757500", "112218.757500", "112220.757500", "112222.757500", "112224.757500", "112226.757500", "112228.757500", "112230.757500", "112232.757500", "112234.757500", "112236.757500", "112238.757500", "112240.757500", "112242.757500", "112244.757500", "112246.757500", "112248.757500", "112250.757500", "112252.757500", "112254.757500", "112256.757500", "112258.757500", "112300.757500", "112302.757500", "112304.757500", "112306.757500", "112308.757500", "112310.757500", "112312.757500", "112314.757500", "112316.757500", "112318.757500", "112320.757500", "112322.757500", "112324.757500", "112326.757500", "112328.757500", "112330.757500", "112332.757500", "112334.757500", "112336.757500", "112338.757500", "112340.757500", "112342.757500", "112344.757500", "112346.757500", "112348.757500", "112350.757500", "112352.757500", "112354.757500", "112356.757500", "112358.757500", "112400.757500", "112402.757500", "112404.757500", "112406.757500", "112408.757500", "112410.757500", "112412.757500", "112414.757500", "112416.757500", "112418.757500", "112420.757500", "112422.757500", "112424.757500", "112426.757500", "112428.757500", "112430.757500", "112432.757500", "112434.757500", "112436.757500", "112438.757500", "112440.757500", "112442.757500", "112444.757500", "112446.757500", "112448.757500", "112450.757500", "112452.757500", "112454.757500", "112456.757500", "112458.757500", "112500.757500", "112502.757500", "112504.757500", "112506.757500", "112508.757500", "112510.757500", "112512.757500", "112514.757500", "112516.757500", "112518.757500", "112520.757500", "112522.757500", "112524.757500", "112526.757500", "112528.757500", "112530.757500", "112532.757500", "112534.757500", "112536.757500", "112538.757500", "112540.757500", "112542.757500", "112544.757500", "112546.757500", "112548.757500", "112550.757500", "112552.757500", "112554.757500", "112556.757500", "112558.757500", "112600.757500", "112602.757500", "112604.757500", "112606.757500", "112608.757500", "112610.757500", "112612.757500", "112614.757500", "112616.757500"],
      "ContentTime": ["111914.728000", "111915.714000", "111915.718000", "111916.714000", "111916.718000", "111917.715000", "111917.719000", "111919.715000", "111921.715000", "111923.715000", "111925.714000", "111927.715000", "111929.712000", "111931.714000", "111933.715000", "111935.714000", "111937.713000", "111939.716000", "111941.715000", "111943.712000", "111945.714000", "111947.714000", "111949.714000", "111951.715000", "111953.715000", "111955.715000", "111957.715000", "111959.715000", "112001.714000", "112003.714000", "112005.714000", "112007.714000", "112009.714000", "112011.715000", "112013.715000", "112015.715000", "112017.714000", "112019.714000", "112021.714000", "112023.714000", "112025.716000", "112027.715000", "112029.715000", "112031.715000", "112033.715000", "112035.714000", "112037.714000", "112039.714000", "112041.714000", "112043.715000", "112045.716000", "112047.715000", "112049.714000", "112051.715000", "112053.714000", "112055.715000", "112057.714000", "112059.714000", "112101.716000", "112103.715000", "112105.715000", "112107.715000", "112109.715000", "112111.715000", "112113.714000", "112115.714000", "112117.715000", "112119.715000", "112121.715000", "112123.715000", "112125.715000", "112127.714000", "112129.714000", "112131.714000", "112133.714000", "112135.715000", "112137.716000", "112139.715000", "112141.714000", "112143.714000", "112145.713000", "112147.713000", "112149.713000", "112151.713000", "112153.714000", "112155.714000", "112157.714000", "112159.714000", "112201.714000", "112203.713000", "112205.713000", "112207.713000", "112209.713000", "112211.714000", "112213.714000", "112215.714000", "112217.714000", "112219.714000", "112221.713000", "112223.713000", "112225.713000", "112227.714000", "112229.714000", "112231.714000", "112233.714000", "112235.714000", "112237.713000", "112239.713000", "112241.713000", "112243.713000", "112245.714000", "112247.714000", "112249.714000", "112251.714000", "112253.714000", "112255.713000", "112257.713000", "112259.713000", "112301.713000", "112303.714000", "112305.714000", "112307.714000", "112309.714000", "112311.714000", "112313.713000", "112315.713000", "112317.713000", "112319.714000", "112321.713000", "112323.714000", "112325.714000", "112327.714000", "112329.714000", "112331.713000", "112333.713000", "112335.713000", "112337.714000", "112339.714000", "112341.714000", "112343.714000", "112345.714000", "112347.713000", "112349.713000", "112351.713000", "112353.713000", "112355.714000", "112357.714000", "112359.714000", "112401.714000", "112403.714000", "112405.713000", "112407.713000", "112409.712000", "112411.713000", "112413.714000", "112415.714000", "112417.714000", "112419.714000", "112421.714000", "112423.713000", "112425.713000", "112427.713000", "112429.715000", "112431.714000", "112433.714000", "112435.715000", "112437.715000", "112439.714000", "112441.714000", "112443.713000", "112445.714000", "112447.714000", "112449.714000", "112451.714000", "112453.714000", "112455.715000", "112457.724000", "112459.714000", "112501.714000", "112503.714000", "112505.715000", "112507.715000", "112509.715000", "112511.714000", "112513.715000", "112515.714000", "112517.714000", "112519.714000", "112521.714000", "112523.715000", "112525.715000", "112527.715000", "112529.715000", "112531.715000", "112533.714000", "112535.714000", "112537.714000", "112539.715000", "112541.715000", "112543.715000", "112545.715000", "112547.715000", "112549.715000", "112551.714000", "112553.714000", "112555.714000", "112557.715000", "112559.715000", "112601.715000", "112603.715000", "112605.715000", "112607.714000", "112609.714000", "112611.714000", "112613.714000", "112615.715000", "112617.715000", "112619.316000"],
      "InstanceCreationTime": ["111914.728000", "111915.714000", "111915.718000", "111916.714000", "111916.718000", "111917.715000", "111917.719000", "111919.715000", "111921.715000", "111923.715000", "111925.714000", "111927.715000", "111929.712000", "111931.714000", "111933.715000", "111935.714000", "111937.713000", "111939.716000", "111941.715000", "111943.712000", "111945.714000", "111947.714000", "111949.714000", "111951.715000", "111953.715000", "111955.715000", "111957.715000", "111959.715000", "112001.714000", "112003.714000", "112005.714000", "112007.714000", "112009.714000", "112011.715000", "112013.715000", "112015.715000", "112017.714000", "112019.714000", "112021.714000", "112023.714000", "112025.716000", "112027.715000", "112029.715000", "112031.715000", "112033.715000", "112035.714000", "112037.714000", "112039.714000", "112041.714000", "112043.715000", "112045.716000", "112047.715000", "112049.714000", "112051.715000", "112053.714000", "112055.715000", "112057.714000", "112059.714000", "112101.716000", "112103.715000", "112105.715000", "112107.715000", "112109.715000", "112111.715000", "112113.714000", "112115.714000", "112117.715000", "112119.715000", "112121.715000", "112123.715000", "112125.715000", "112127.714000", "112129.714000", "112131.714000", "112133.714000", "112135.715000", "112137.716000", "112139.715000", "112141.714000", "112143.714000", "112145.713000", "112147.713000", "112149.713000", "112151.713000", "112153.714000", "112155.714000", "112157.714000", "112159.714000", "112201.714000", "112203.713000", "112205.713000", "112207.713000", "112209.713000", "112211.714000", "112213.714000", "112215.714000", "112217.714000", "112219.714000", "112221.713000", "112223.713000", "112225.713000", "112227.714000", "112229.714000", "112231.714000", "112233.714000", "112235.714000", "112237.713000", "112239.713000", "112241.713000", "112243.713000", "112245.714000", "112247.714000", "112249.714000", "112251.714000", "112253.714000", "112255.713000", "112257.713000", "112259.713000", "112301.713000", "112303.714000", "112305.714000", "112307.714000", "112309.714000", "112311.714000", "112313.713000", "112315.713000", "112317.713000", "112319.714000", "112321.713000", "112323.714000", "112325.714000", "112327.714000", "112329.714000", "112331.713000", "112333.713000", "112335.713000", "112337.714000", "112339.714000", "112341.714000", "112343.714000", "112345.714000", "112347.713000", "112349.713000", "112351.713000", "112353.713000", "112355.714000", "112357.714000", "112359.714000", "112401.714000", "112403.714000", "112405.713000", "112407.713000", "112409.712000", "112411.713000", "112413.714000", "112415.714000", "112417.714000", "112419.714000", "112421.714000", "112423.713000", "112425.713000", "112427.713000", "112429.715000", "112431.714000", "112433.714000", "112435.715000", "112437.715000", "112439.714000", "112441.714000", "112443.713000", "112445.714000", "112447.714000", "112449.714000", "112451.714000", "112453.714000", "112455.715000", "112457.724000", "112459.714000", "112501.714000", "112503.714000", "112505.715000", "112507.715000", "112509.715000", "112511.714000", "112513.715000", "112515.714000", "112517.714000", "112519.714000", "112521.714000", "112523.715000", "112525.715000", "112527.715000", "112529.715000", "112531.715000", "112533.714000", "112535.714000", "112537.714000", "112539.715000", "112541.715000", "112543.715000", "112545.715000", "112547.715000", "112549.715000", "112551.714000", "112553.714000", "112555.714000", "112557.715000", "112559.715000", "112601.715000", "112603.715000", "112605.715000", "112607.714000", "112609.714000", "112611.714000", "112613.714000", "112615.715000", "112617.715000", "112619.316000"],
      "InstanceNumber": [1, 2, 3, 4, 5, 6, 7, 8, 9, 10, 11, 12, 13, 14, 15, 16, 17, 18, 19, 20, 21, 22, 23, 24, 25, 26, 27, 28, 29, 30, 31, 32, 33, 34, 35, 36, 37, 38, 39, 40, 41, 42, 43, 44, 45, 46, 47, 48, 49, 50, 51, 52, 53, 54, 55, 56, 57, 58, 59, 60, 61, 62, 63, 64, 65, 66, 67, 68, 69, 70, 71, 72, 73, 74, 75, 76, 77, 78, 79, 80, 81, 82, 83, 84, 85, 86, 87, 88, 89, 90, 91, 92, 93, 94, 95, 96, 97, 98, 99, 100, 101, 102, 103, 104, 105, 106, 107, 108, 109, 110, 111, 112, 113, 114, 115, 116, 117, 118, 119, 120, 121, 122, 123, 124, 125, 126, 127, 128, 129, 130, 131, 132, 133, 134, 135, 136, 137, 138, 139, 140, 141, 142, 143, 144, 145, 146, 147, 148, 149, 150, 151, 152, 153, 154, 155, 156, 157, 158, 159, 160, 161, 162, 163, 164, 165, 166, 167, 168, 169, 170, 171, 172, 173, 174, 175, 176, 177, 178, 179, 180, 181, 182, 183, 184, 185, 186, 187, 188, 189, 190, 191, 192, 193, 194, 195, 196, 197, 198, 199, 200, 201, 202, 203, 204, 205, 206, 207, 208, 209, 210, 211, 212, 213, 214, 215, 216, 217, 218],
      "WindowCenter": [15736.0, 15720.0, 15717.0, 15732.0, 15727.0, 15727.0, 15746.0, 15726.0, 15734.0, 15728.0, 15728.0, 15737.0, 15728.0, 15724.0, 15735.0, 15749.0, 15746.0, 15710.0, 15724.0, 15729.0, 15727.0, 15731.0, 15728.0, 15731.0, 15713.0, 15724.0, 15749.0, 15761.0, 15759.0, 15712.0, 15719.0, 15710.0, 15713.0, 15723.0, 15726.0, 15729.0, 15733.0, 15728.0, 15740.0, 15737.0, 15712.0, 15712.0, 15719.0, 15712.0, 15716.0, 15713.0, 15724.0, 15723.0, 15729.0, 15719.0, 15724.0, 15731.0, 15718.0, 15724.0, 15738.0, 15740.0, 15729.0, 15730.0, 15747.0, 15718.0, 15715.0, 15718.0, 15710.0, 15721.0, 15726.0, 15724.0, 15721.0, 15732.0, 15730.0, 15718.0, 15724.0, 15729.0, 15706.0, 15705.0, 15721.0, 15725.0, 15717.0, 15718.0, 15707.0, 15705.0, 15716.0, 15735.0, 15724.0, 15720.0, 15724.0, 15706.0, 15697.0, 15709.0, 15709.0, 15711.0, 15726.0, 15724.0, 15725.0, 15729.0, 15721.0, 15718.0, 15714.0, 15724.0, 15704.0, 15720.0, 15718.0, 15716.0, 15727.0, 15722.0, 15721.0, 15727.0, 15725.0, 15720.0, 15727.0, 15722.0, 15719.0, 15719.0, 15724.0, 15715.0, 15721.0, 15715.0, 15713.0, 15725.0, 15742.0, 15737.0, 15720.0, 15696.0, 15720.0, 15723.0, 15727.0, 15739.0, 15734.0, 15733.0, 15730.0, 15714.0, 15703.0, 15703.0, 15721.0, 15720.0, 15712.0, 15724.0, 15729.0, 15734.0, 15733.0, 15718.0, 15720.0, 15729.0, 15736.0, 15745.0, 15742.0, 15740.0, 15740.0, 15726.0, 15728.0, 15712.0, 15725.0, 15742.0, 15725.0, 15730.0, 15723.0, 15718.0, 15719.0, 15727.0, 15737.0, 15731.0, 15735.0, 15719.0, 15719.0, 15722.0, 15744.0, 15737.0, 15732.0, 15723.0, 15727.0, 15729.0, 15725.0, 15729.0, 15736.0, 15741.0, 15725.0, 15718.0, 15698.0, 15703.0, 15713.0, 15719.0, 15729.0, 15736.0, 15733.0, 15719.0, 15712.0, 15720.0, 15731.0, 15724.0, 15746.0, 15744.0, 15735.0, 15724.0, 15725.0, 15737.0, 15725.0, 15731.0, 15751.0, 15753.0, 15752.0, 15757.0, 15728.0, 15737.0, 15738.0, 15731.0, 15744.0, 15737.0, 15735.0, 15732.0, 15746.0, 15754.0, 15757.0, 15755.0, 15735.0, 15725.0, 15718.0, 15715.0, 15748.0, 15741.0],
      "WindowWidth": [44982.0, 44898.0, 44910.0, 44938.0, 44973.0, 44947.0, 44936.0, 44959.0, 44967.0, 44961.0, 44933.0, 44942.0, 44948.0, 44973.0, 45080.0, 45049.0, 44866.0, 44875.0, 44956.0, 45031.0, 45030.0, 44991.0, 44933.0, 44880.0, 44880.0, 44976.0, 45191.0, 45187.0, 44934.0, 44835.0, 44816.0, 44820.0, 44852.0, 44847.0, 44936.0, 44995.0, 44985.0, 44964.0, 45004.0, 44987.0, 44964.0, 44934.0, 44815.0, 44797.0, 44858.0, 44910.0, 44945.0, 44974.0, 44950.0, 44943.0, 44921.0, 44885.0, 44931.0, 45005.0, 45018.0, 45003.0, 44977.0, 44980.0, 44952.0, 44926.0, 44884.0, 44859.0, 44894.0, 44931.0, 44896.0, 44893.0, 44877.0, 44900.0, 44927.0, 44916.0, 44879.0, 44856.0, 44875.0, 44930.0, 45000.0, 44989.0, 44968.0, 44913.0, 44903.0, 44943.0, 44967.0, 44971.0, 44974.0, 44944.0, 44933.0, 44889.0, 44908.0, 44890.0, 44876.0, 44920.0, 44977.0, 44977.0, 44978.0, 44938.0, 44904.0, 44955.0, 44965.0, 44877.0, 44886.0, 44902.0, 44930.0, 44899.0, 44883.0, 44919.0, 44960.0, 44991.0, 44935.0, 44917.0, 44869.0, 44877.0, 44873.0, 44874.0, 44880.0, 44943.0, 44917.0, 44854.0, 44980.0, 45030.0, 44935.0, 44848.0, 44762.0, 44769.0, 44859.0, 44933.0, 44967.0, 44963.0, 44916.0, 44885.0, 44868.0, 44882.0, 44871.0, 44829.0, 44777.0, 44790.0, 44785.0, 44849.0, 44938.0, 44917.0, 44899.0, 44858.0, 44861.0, 44895.0, 44905.0, 44958.0, 45009.0, 44925.0, 44894.0, 44881.0, 44870.0, 44884.0, 44923.0, 44911.0, 44920.0, 44882.0, 44820.0, 44845.0, 44958.0, 44963.0, 44877.0, 44872.0, 44874.0, 44888.0, 44916.0, 44946.0, 44952.0, 44960.0, 44954.0, 44948.0, 44951.0, 44940.0, 44989.0, 45022.0, 45042.0, 44976.0, 44892.0, 44859.0, 44857.0, 44902.0, 44966.0, 45002.0, 45036.0, 44974.0, 44873.0, 44818.0, 44799.0, 44821.0, 44899.0, 44977.0, 45025.0, 44954.0, 44861.0, 44851.0, 44907.0, 44931.0, 44949.0, 44942.0, 44973.0, 45113.0, 45111.0, 44974.0, 44879.0, 44819.0, 44777.0, 44772.0, 44758.0, 44808.0, 44836.0, 44943.0, 44997.0, 45018.0, 44965.0, 44879.0, 44890.0, 44921.0, 44958.0, 44998.0, 45000.0, 44977.0]
    },
    "slices": {}
  }
}