{
  "AcquisitionMatrixPE": 116,
  "AcquisitionNumber": 1,
  "AcquisitionTime": "15:35:0.647500",
  "BandwidthPerPixelPhaseEncode": 18.539,
  "BaseResolution": 116,
  "BodyPartExamined": "HEAD",
  "ConsistencyInfo": "N4_VD13D_LATEST_20130810",
  "ConversionSoftware": "dcm2niix",
  "ConversionSoftwareVersion": "v1.0.20190410  (JP2:OpenJPEG) (JP-LS:CharLS) GCC5.5.0",
  "DerivedVendorReportedEchoSpacing": 0.000930006,
  "DeviceSerialNumber": "66014",
  "DwellTime": 3e-06,
  "EchoTime": 0.03,
  "EchoTrainLength": 50,
  "EffectiveEchoSpacing": 0.000465003,
  "FlipAngle": 81,
  "ImageComments": "Unaliased_MB3_PE4",
  "ImageOrientationPatientDICOM": [0.999083, -0.0361989, 0.0228457, 0.0401273, 0.977846, -0.205443],
  "ImageType": [
    "ORIGINAL",
    "PRIMARY",
    "M",
    "MB",
    "ND",
    "MOSAIC"
],
  "ImagingFrequency": 123.261,
  "InPlanePhaseEncodingDirectionDICOM": "COL",
  "InstitutionAddress": "Yiheyuan_Road_5_Beijing_Haidian_CN_100871",
  "InstitutionName": "Peking_Univeristy",
  "InstitutionalDepartmentName": "Department",
  "MRAcquisitionType": "2D",
  "MagneticFieldStrength": 3,
  "Manufacturer": "Siemens",
  "ManufacturersModelName": "Prisma",
  "Modality": "MR",
  "MultibandAccelerationFactor": 3,
  "ParallelReductionFactorInPlane": 2,
  "PartialFourier": 0.875,
  "PatientPosition": "HFS",
  "PercentPhaseFOV": 100,
  "PhaseEncodingDirection": "j-",
  "PhaseEncodingSteps": 101,
  "PhaseResolution": 1,
  "PixelBandwidth": 1435,
  "ProcedureStepDescription": "Research_Projects_64CH",
  "ProtocolName": "mbep2d_bold_MB3_loca3",
  "PulseSequenceDetails": "%CustomerSeq%_cmrr_mbep2d_bold",
  "ReceiveCoilActiveElements": "HC1-7;NC1",
  "ReceiveCoilName": "HeadNeck_64",
  "ReconMatrixPE": 116,
  "RefLinesPE": 44,
  "RepetitionTime": 2,
  "SAR": 0.058458,
  "ScanOptions": "PFP_FS",
  "ScanningSequence": "EP",
  "SequenceName": "epfid2d1_116",
  "SequenceVariant": "SK_SS",
  "SeriesDescription": "mbep2d_bold_MB3_loca3",
  "SeriesNumber": 13,
  "ShimSetting": [-3465, -2078, -1963, 358, -40, -158, 46, 41],
  "SliceThickness": 1.9,
  "SliceTiming": [0, 0.9075, 1.815, 0.7425, 1.65, 0.5775, 1.485, 0.4125, 1.32, 0.2475, 1.155, 0.0825, 0.99, 1.8975, 0.825, 1.7325, 0.66, 1.5675, 0.495, 1.4025, 0.33, 1.2375, 0.165, 1.0725, 0, 0.9075, 1.815, 0.7425, 1.65, 0.5775, 1.485, 0.4125, 1.32, 0.2475, 1.155, 0.0825, 0.99, 1.8975, 0.825, 1.7325, 0.66, 1.5675, 0.495, 1.4025, 0.33, 1.2375, 0.165, 1.0725, 0, 0.9075, 1.815, 0.7425, 1.65, 0.5775, 1.485, 0.4125, 1.32, 0.2475, 1.155, 0.0825, 0.99, 1.8975, 0.825, 1.7325, 0.66, 1.5675, 0.495, 1.4025, 0.33, 1.2375, 0.165, 1.0725],
  "SoftwareVersions": "syngo_MR_D13D",
  "SpacingBetweenSlices": 1.9,
  "StationName": "AWP66014",
  "TaskName": "localizer",
  "TotalReadoutTime": 0.0534753,
  "TxRefAmp": 220.26,
  "WipMemBlock": "df404eb6-df91-4530-ba28-8f601c9d43a2||Sequence: vd13d/master r/0735857; Nov 19 2014 09:21:40 by eja",
  "dcmmeta_affine": [
    [-1.8948134183883667, 0.07610344141721725, 0.028315261006355286, 104.1009292602539],
    [0.0686531737446785, 1.854535698890686, -0.3917258679866791, -88.67115020751953],
    [0.04332808032631874, 0.389633446931839, 1.858964443206787, -108.25804901123047],
    [0.0, 0.0, 0.0, 1.0]
],
  "dcmmeta_reorient_transform": [
    [0.0, -1.0, 0.0, 115.0],
    [1.0, 0.0, 0.0, 0.0],
    [0.0, 0.0, 1.0, 0.0],
    [0.0, 0.0, 0.0, 1.0]
],
  "dcmmeta_shape": [116, 116, 72, 164],
  "dcmmeta_slice_dim": 2,
  "dcmmeta_version": 0.6,
  "global": {
    "const": {
      "AcquisitionMatrix": [116, 0, 0, 116],
      "AngioFlag": "N",
      "BitsAllocated": 16,
      "BitsStored": 16,
      "BodyPartExamined": "HEAD",
      "Columns": 1044,
      "EchoNumbers": 1,
      "EchoTime": 30.0,
      "EchoTrainLength": 50,
      "FlipAngle": 81.0,
      "HighBit": 15,
      "ImageOrientationPatient": [0.99908343482179, -0.0361989449073, 0.02284571409016, 0.04012726933233, 0.97784607236178, -0.2054430846307],
      "ImagePositionPatient": [-1027.3582441799, -953.24992814369, 97.235485666855],
      "ImageType": [
        "ORIGINAL",
        "PRIMARY",
        "M",
        "MB",
        "ND",
        "MOSAIC"
],
      "ImagedNucleus": "1H",
      "ImagingFrequency": 123.260587,
      "InPlanePhaseEncodingDirection": "COL",
      "LargestImagePixelValue": 65535,
      "MRAcquisitionType": "2D",
      "MagneticFieldStrength": 3.0,
      "Manufacturer": "SIEMENS",
      "ManufacturerModelName": "Prisma",
      "Modality": "MR",
      "NumberOfAverages": 1.0,
      "NumberOfPhaseEncodingSteps": 101,
      "PercentPhaseFieldOfView": 100.0,
      "PercentSampling": 100.0,
      "PerformedProcedureStepStartTime": "142241.591000",
      "PhotometricInterpretation": "MONOCHROME2",
      "PixelBandwidth": 1435.0,
      "PixelRepresentation": 0,
      "PixelSpacing": [1.8965517282486, 1.8965517282486],
      "ProtocolName": "mbep2d_bold_MB3_loca3",
      "RepetitionTime": 2000.0,
      "Rows": 1044,
      "SAR": 0.05845800831106,
      "SamplesPerPixel": 1,
      "ScanOptions": [
        "PFP",
        "FS"
],
      "ScanningSequence": "EP",
      "SequenceName": "epfid2d1_116",
      "SequenceVariant": [
        "SK",
        "SS"
],
      "SeriesDescription": "mbep2d_bold_MB3_loca3",
      "SeriesNumber": 13,
      "SeriesTime": "153518.371000",
      "SliceLocation": -86.087072621404,
      "SliceThickness": 1.8999999761581,
      "SmallestImagePixelValue": 0,
      "SoftwareVersions": "syngo MR D13D",
      "SpacingBetweenSlices": 1.8999999465549,
      "SpecificCharacterSet": "ISO_IR 100",
      "StudyID": "1",
      "StudyTime": "142241.543000",
      "TimeOfLastCalibration": ["123723.000000", "123723.000000"],
      "TransmitCoilName": "Body",
      "VariableFlipAngleFlag": "N",
      "WindowCenterWidthExplanation": "Algo1",
      "dBdt": 0.0},
    "slices": {}
  },
  "time": {
    "samples": {
      "AcquisitionNumber": [1, 2, 3, 4, 5, 6, 7, 8, 9, 10, 11, 12, 13, 14, 15, 16, 17, 18, 19, 20, 21, 22, 23, 24, 25, 26, 27, 28, 29, 30, 31, 32, 33, 34, 35, 36, 37, 38, 39, 40, 41, 42, 43, 44, 45, 46, 47, 48, 49, 50, 51, 52, 53, 54, 55, 56, 57, 58, 59, 60, 61, 62, 63, 64, 65, 66, 67, 68, 69, 70, 71, 72, 73, 74, 75, 76, 77, 78, 79, 80, 81, 82, 83, 84, 85, 86, 87, 88, 89, 90, 91, 92, 93, 94, 95, 96, 97, 98, 99, 100, 101, 102, 103, 104, 105, 106, 107, 108, 109, 110, 111, 112, 113, 114, 115, 116, 117, 118, 119, 120, 121, 122, 123, 124, 125, 126, 127, 128, 129, 130, 131, 132, 133, 134, 135, 136, 137, 138, 139, 140, 141, 142, 143, 144, 145, 146, 147, 148, 149, 150, 151, 152, 153, 154, 155, 156, 157, 158, 159, 160, 161, 162, 163, 164],
      "AcquisitionTime": ["153500.647500", "153502.647500", "153504.647500", "153506.647500", "153508.647500", "153510.647500", "153512.647500", "153514.647500", "153516.647500", "153518.647500", "153520.647500", "153522.647500", "153524.647500", "153526.647500", "153528.647500", "153530.647500", "153532.647500", "153534.647500", "153536.647500", "153538.647500", "153540.647500", "153542.647500", "153544.647500", "153546.647500", "153548.647500", "153550.647500", "153552.647500", "153554.647500", "153556.647500", "153558.647500", "153600.647500", "153602.647500", "153604.647500", "153606.647500", "153608.647500", "153610.647500", "153612.647500", "153614.647500", "153616.647500", "153618.647500", "153620.647500", "153622.647500", "153624.647500", "153626.647500", "153628.647500", "153630.647500", "153632.647500", "153634.647500", "153636.647500", "153638.647500", "153640.647500", "153642.647500", "153644.647500", "153646.647500", "153648.647500", "153650.647500", "153652.647500", "153654.647500", "153656.647500", "153658.647500", "153700.647500", "153702.647500", "153704.647500", "153706.647500", "153708.647500", "153710.647500", "153712.647500", "153714.647500", "153716.647500", "153718.647500", "153720.647500", "153722.647500", "153724.647500", "153726.647500", "153728.647500", "153730.647500", "153732.647500", "153734.647500", "153736.647500", "153738.647500", "153740.647500", "153742.647500", "153744.647500", "153746.647500", "153748.647500", "153750.647500", "153752.647500", "153754.647500", "153756.647500", "153758.647500", "153800.647500", "153802.647500", "153804.647500", "153806.647500", "153808.647500", "153810.647500", "153812.647500", "153814.647500", "153816.647500", "153818.647500", "153820.647500", "153822.647500", "153824.647500", "153826.647500", "153828.647500", "153830.647500", "153832.647500", "153834.647500", "153836.647500", "153838.647500", "153840.647500", "153842.647500", "153844.647500", "153846.647500", "153848.647500", "153850.647500", "153852.647500", "153854.647500", "153856.647500", "153858.647500", "153900.647500", "153902.647500", "153904.647500", "153906.647500", "153908.647500", "153910.647500", "153912.647500", "153914.647500", "153916.647500", "153918.647500", "153920.647500", "153922.647500", "153924.647500", "153926.647500", "153928.647500", "153930.647500", "153932.647500", "153934.647500", "153936.647500", "153938.647500", "153940.647500", "153942.647500", "153944.647500", "153946.647500", "153948.647500", "153950.647500", "153952.647500", "153954.647500", "153956.647500", "153958.647500", "154000.647500", "154002.647500", "154004.647500", "154006.647500", "154008.647500", "154010.647500", "154012.647500", "154014.647500", "154016.647500", "154018.647500", "154020.647500", "154022.647500", "154024.647500", "154026.647500"],
      "ContentTime": ["153518.377000", "153519.363000", "153520.362000", "153521.362000", "153521.366000", "153522.361000", "153523.362000", "153524.362000", "153525.362000", "153526.362000", "153527.362000", "153527.366000", "153528.362000", "153529.864000", "153531.864000", "153533.864000", "153535.865000", "153537.864000", "153539.863000", "153541.863000", "153543.863000", "153545.863000", "153547.863000", "153549.864000", "153551.864000", "153553.864000", "153555.863000", "153557.863000", "153559.863000", "153601.863000", "153603.864000", "153605.863000", "153607.864000", "153609.863000", "153611.864000", "153613.863000", "153615.863000", "153617.863000", "153619.863000", "153621.864000", "153623.863000", "153625.863000", "153627.864000", "153629.863000", "153631.863000", "153633.863000", "153635.863000", "153637.863000", "153639.863000", "153641.863000", "153643.864000", "153645.864000", "153647.864000", "153649.864000", "153651.863000", "153653.863000", "153655.863000", "153657.863000", "153659.864000", "153701.864000", "153703.864000", "153705.863000", "153707.863000", "153709.862000", "153711.863000", "153713.863000", "153715.863000", "153717.864000", "153719.864000", "153721.865000", "153723.864000", "153725.864000", "153727.863000", "153729.863000", "153731.863000", "153733.863000", "153735.864000", "153737.864000", "153739.864000", "153741.863000", "153743.864000", "153745.863000", "153747.863000", "153749.863000", "153751.864000", "153753.865000", "153755.864000", "153757.862000", "153759.864000", "153801.863000", "153803.863000", "153805.863000", "153807.863000", "153809.864000", "153811.865000", "153813.864000", "153815.863000", "153817.864000", "153819.863000", "153821.864000", "153823.863000", "153825.863000", "153827.864000", "153829.864000", "153831.864000", "153833.864000", "153835.863000", "153837.863000", "153839.863000", "153841.863000", "153843.862000", "153845.864000", "153847.862000", "153849.864000", "153851.863000", "153853.863000", "153855.863000", "153857.864000", "153859.863000", "153901.864000", "153903.863000", "153905.864000", "153907.863000", "153909.863000", "153911.863000", "153913.864000", "153915.863000", "153917.863000", "153919.864000", "153921.864000", "153923.864000", "153925.864000", "153927.863000", "153929.864000", "153931.863000", "153933.863000", "153935.863000", "153937.864000", "153939.864000", "153941.864000", "153943.863000", "153945.864000", "153947.863000", "153949.863000", "153951.864000", "153953.863000", "153955.864000", "153957.864000", "153959.863000", "154001.863000", "154003.863000", "154005.863000", "154007.864000", "154009.864000", "154011.864000", "154013.864000", "154015.865000", "154017.863000", "154019.863000", "154021.863000", "154023.863000", "154025.863000", "154027.864000", "154029.506000"],
      "InstanceCreationTime": ["153518.377000", "153519.363000", "153520.362000", "153521.362000", "153521.366000", "153522.361000", "153523.362000", "153524.362000", "153525.362000", "153526.362000", "153527.362000", "153527.366000", "153528.362000", "153529.864000", "153531.864000", "153533.864000", "153535.865000", "153537.864000", "153539.863000", "153541.863000", "153543.863000", "153545.863000", "153547.863000", "153549.864000", "153551.864000", "153553.864000", "153555.863000", "153557.863000", "153559.863000", "153601.863000", "153603.864000", "153605.863000", "153607.864000", "153609.863000", "153611.864000", "153613.863000", "153615.863000", "153617.863000", "153619.863000", "153621.864000", "153623.863000", "153625.863000", "153627.864000", "153629.863000", "153631.863000", "153633.863000", "153635.863000", "153637.863000", "153639.863000", "153641.863000", "153643.864000", "153645.864000", "153647.864000", "153649.864000", "153651.863000", "153653.863000", "153655.863000", "153657.863000", "153659.864000", "153701.864000", "153703.864000", "153705.863000", "153707.863000", "153709.862000", "153711.863000", "153713.863000", "153715.863000", "153717.864000", "153719.864000", "153721.865000", "153723.864000", "153725.864000", "153727.863000", "153729.863000", "153731.863000", "153733.863000", "153735.864000", "153737.864000", "153739.864000", "153741.863000", "153743.864000", "153745.863000", "153747.863000", "153749.863000", "153751.864000", "153753.865000", "153755.864000", "153757.862000", "153759.864000", "153801.863000", "153803.863000", "153805.863000", "153807.863000", "153809.864000", "153811.865000", "153813.864000", "153815.863000", "153817.864000", "153819.863000", "153821.864000", "153823.863000", "153825.863000", "153827.864000", "153829.864000", "153831.864000", "153833.864000", "153835.863000", "153837.863000", "153839.863000", "153841.863000", "153843.862000", "153845.864000", "153847.862000", "153849.864000", "153851.863000", "153853.863000", "153855.863000", "153857.864000", "153859.863000", "153901.864000", "153903.863000", "153905.864000", "153907.863000", "153909.863000", "153911.863000", "153913.864000", "153915.863000", "153917.863000", "153919.864000", "153921.864000", "153923.864000", "153925.864000", "153927.863000", "153929.864000", "153931.863000", "153933.863000", "153935.863000", "153937.864000", "153939.864000", "153941.864000", "153943.863000", "153945.864000", "153947.863000", "153949.863000", "153951.864000", "153953.863000", "153955.864000", "153957.864000", "153959.863000", "154001.863000", "154003.863000", "154005.863000", "154007.864000", "154009.864000", "154011.864000", "154013.864000", "154015.865000", "154017.863000", "154019.863000", "154021.863000", "154023.863000", "154025.863000", "154027.864000", "154029.506000"],
      "InstanceNumber": [1, 2, 3, 4, 5, 6, 7, 8, 9, 10, 11, 12, 13, 14, 15, 16, 17, 18, 19, 20, 21, 22, 23, 24, 25, 26, 27, 28, 29, 30, 31, 32, 33, 34, 35, 36, 37, 38, 39, 40, 41, 42, 43, 44, 45, 46, 47, 48, 49, 50, 51, 52, 53, 54, 55, 56, 57, 58, 59, 60, 61, 62, 63, 64, 65, 66, 67, 68, 69, 70, 71, 72, 73, 74, 75, 76, 77, 78, 79, 80, 81, 82, 83, 84, 85, 86, 87, 88, 89, 90, 91, 92, 93, 94, 95, 96, 97, 98, 99, 100, 101, 102, 103, 104, 105, 106, 107, 108, 109, 110, 111, 112, 113, 114, 115, 116, 117, 118, 119, 120, 121, 122, 123, 124, 125, 126, 127, 128, 129, 130, 131, 132, 133, 134, 135, 136, 137, 138, 139, 140, 141, 142, 143, 144, 145, 146, 147, 148, 149, 150, 151, 152, 153, 154, 155, 156, 157, 158, 159, 160, 161, 162, 163, 164],
      "WindowCenter": [15097.0, 15083.0, 15090.0, 15094.0, 15079.0, 15084.0, 15072.0, 15082.0, 15076.0, 15062.0, 15066.0, 15067.0, 15068.0, 15072.0, 15073.0, 15073.0, 15076.0, 15083.0, 15081.0, 15072.0, 15075.0, 15074.0, 15076.0, 15073.0, 15068.0, 15077.0, 15079.0, 15063.0, 15069.0, 15078.0, 15084.0, 15070.0, 15067.0, 15070.0, 15072.0, 15067.0, 15071.0, 15076.0, 15063.0, 15075.0, 15065.0, 15075.0, 15079.0, 15088.0, 15082.0, 15078.0, 15078.0, 15071.0, 15083.0, 15084.0, 15085.0, 15086.0, 15079.0, 15074.0, 15085.0, 15078.0, 15089.0, 15077.0, 15081.0, 15082.0, 15080.0, 15091.0, 15078.0, 15078.0, 15079.0, 15079.0, 15080.0, 15075.0, 15080.0, 15086.0, 15075.0, 15079.0, 15072.0, 15073.0, 15076.0, 15076.0, 15083.0, 15090.0, 15091.0, 15073.0, 15083.0, 15086.0, 15086.0, 15077.0, 15086.0, 15087.0, 15085.0, 15089.0, 15077.0, 15074.0, 15079.0, 15078.0, 15077.0, 15082.0, 15083.0, 15076.0, 15076.0, 15081.0, 15074.0, 15078.0, 15082.0, 15079.0, 15085.0, 15083.0, 15093.0, 15095.0, 15088.0, 15087.0, 15094.0, 15083.0, 15091.0, 15088.0, 15086.0, 15080.0, 15090.0, 15087.0, 15079.0, 15085.0, 15103.0, 15087.0, 15093.0, 15085.0, 15088.0, 15100.0, 15100.0, 15088.0, 15091.0, 15086.0, 15092.0, 15082.0, 15083.0, 15078.0, 15082.0, 15081.0, 15094.0, 15092.0, 15089.0, 15089.0, 15089.0, 15081.0, 15084.0, 15085.0, 15098.0, 15098.0, 15104.0, 15094.0, 15097.0, 15087.0, 15095.0, 15103.0, 15104.0, 15102.0, 15102.0, 15085.0, 15087.0, 15084.0, 15093.0, 15095.0, 15087.0, 15100.0, 15093.0, 15092.0, 15090.0, 15096.0],
      "WindowWidth": [42398.0, 42409.0, 42390.0, 42396.0, 42422.0, 42415.0, 42385.0, 42321.0, 42267.0, 42240.0, 42245.0, 42261.0, 42294.0, 42313.0, 42299.0, 42299.0, 42290.0, 42270.0, 42263.0, 42256.0, 42274.0, 42302.0, 42274.0, 42272.0, 42339.0, 42306.0, 42263.0, 42244.0, 42296.0, 42293.0, 42254.0, 42267.0, 42307.0, 42313.0, 42271.0, 42234.0, 42240.0, 42247.0, 42291.0, 42289.0, 42292.0, 42274.0, 42265.0, 42274.0, 42300.0, 42291.0, 42264.0, 42316.0, 42341.0, 42271.0, 42244.0, 42260.0, 42299.0, 42335.0, 42270.0, 42232.0, 42261.0, 42278.0, 42270.0, 42240.0, 42254.0, 42252.0, 42251.0, 42278.0, 42283.0, 42281.0, 42265.0, 42277.0, 42297.0, 42304.0, 42276.0, 42250.0, 42242.0, 42216.0, 42232.0, 42262.0, 42315.0, 42310.0, 42265.0, 42275.0, 42300.0, 42274.0, 42317.0, 42367.0, 42332.0, 42303.0, 42290.0, 42263.0, 42236.0, 42261.0, 42253.0, 42208.0, 42238.0, 42286.0, 42313.0, 42292.0, 42322.0, 42297.0, 42378.0, 42412.0, 42355.0, 42291.0, 42271.0, 42271.0, 42312.0, 42329.0, 42305.0, 42228.0, 42195.0, 42202.0, 42237.0, 42308.0, 42378.0, 42356.0, 42339.0, 42318.0, 42311.0, 42288.0, 42267.0, 42262.0, 42286.0, 42391.0, 42393.0, 42318.0, 42246.0, 42249.0, 42239.0, 42278.0, 42344.0, 42343.0, 42344.0, 42368.0, 42402.0, 42386.0, 42386.0, 42414.0, 42350.0, 42291.0, 42293.0, 42240.0, 42213.0, 42246.0, 42260.0, 42262.0, 42298.0, 42302.0, 42347.0, 42394.0, 42373.0, 42325.0, 42296.0, 42293.0, 42324.0, 42362.0, 42377.0, 42401.0, 42340.0, 42328.0, 42347.0, 42336.0, 42386.0, 42322.0, 42261.0, 42230.0]
    },
    "slices": {}
  }
}