{
  "AcquisitionMatrixPE": 116,
  "AcquisitionNumber": 1,
  "AcquisitionTime": "15:00:32.775000",
  "BandwidthPerPixelPhaseEncode": 18.539,
  "BaseResolution": 116,
  "BodyPartExamined": "HEAD",
  "ConsistencyInfo": "N4_VD13D_LATEST_20130810",
  "ConversionSoftware": "dcm2niix",
  "ConversionSoftwareVersion": "v1.0.20190410  (JP2:OpenJPEG) (JP-LS:CharLS) GCC5.5.0",
  "DerivedVendorReportedEchoSpacing": 0.000930006,
  "DeviceSerialNumber": "66014",
  "DwellTime": 3e-06,
  "EchoTime": 0.03,
  "EchoTrainLength": 50,
  "EffectiveEchoSpacing": 0.000465003,
  "FlipAngle": 81,
  "ImageComments": "Unaliased_MB3_PE4",
  "ImageOrientationPatientDICOM": [0.999083, -0.0361989, 0.0228457, 0.0401273, 0.977846, -0.205443],
  "ImageType": [
    "ORIGINAL",
    "PRIMARY",
    "M",
    "MB",
    "ND",
    "MOSAIC"
],
  "ImagingFrequency": 123.261,
  "InPlanePhaseEncodingDirectionDICOM": "COL",
  "InstitutionAddress": "Yiheyuan_Road_5_Beijing_Haidian_CN_100871",
  "InstitutionName": "Peking_Univeristy",
  "InstitutionalDepartmentName": "Department",
  "MRAcquisitionType": "2D",
  "MagneticFieldStrength": 3,
  "Manufacturer": "Siemens",
  "ManufacturersModelName": "Prisma",
  "Modality": "MR",
  "MultibandAccelerationFactor": 3,
  "ParallelReductionFactorInPlane": 2,
  "PartialFourier": 0.875,
  "PatientPosition": "HFS",
  "PercentPhaseFOV": 100,
  "PhaseEncodingDirection": "j-",
  "PhaseEncodingSteps": 101,
  "PhaseResolution": 1,
  "PixelBandwidth": 1435,
  "ProcedureStepDescription": "Research_Projects_64CH",
  "ProtocolName": "mbep2d_bold_MB3_test2",
  "PulseSequenceDetails": "%CustomerSeq%_cmrr_mbep2d_bold",
  "ReceiveCoilActiveElements": "HC1-7;NC1",
  "ReceiveCoilName": "HeadNeck_64",
  "ReconMatrixPE": 116,
  "RefLinesPE": 44,
  "RepetitionTime": 2,
  "SAR": 0.0595699,
  "ScanOptions": "PFP_FS",
  "ScanningSequence": "EP",
  "SequenceName": "epfid2d1_116",
  "SequenceVariant": "SK_SS",
  "SeriesDescription": "mbep2d_bold_MB3_test2",
  "SeriesNumber": 9,
  "ShimSetting": [-3465, -2078, -1963, 358, -40, -158, 46, 41],
  "SliceThickness": 1.9,
  "SliceTiming": [0, 0.9075, 1.815, 0.7425, 1.65, 0.5775, 1.485, 0.4125, 1.32, 0.2475, 1.155, 0.0825, 0.99, 1.8975, 0.825, 1.7325, 0.66, 1.5675, 0.495, 1.4025, 0.33, 1.2375, 0.165, 1.0725, 0, 0.9075, 1.815, 0.7425, 1.65, 0.5775, 1.485, 0.4125, 1.32, 0.2475, 1.155, 0.0825, 0.99, 1.8975, 0.825, 1.7325, 0.66, 1.5675, 0.495, 1.4025, 0.33, 1.2375, 0.165, 1.0725, 0, 0.9075, 1.815, 0.7425, 1.65, 0.5775, 1.485, 0.4125, 1.32, 0.2475, 1.155, 0.0825, 0.99, 1.8975, 0.825, 1.7325, 0.66, 1.5675, 0.495, 1.4025, 0.33, 1.2375, 0.165, 1.0725],
  "SoftwareVersions": "syngo_MR_D13D",
  "SpacingBetweenSlices": 1.9,
  "StationName": "AWP66014",
  "TaskName": "retrieval",
  "TotalReadoutTime": 0.0534753,
  "TxRefAmp": 220.26,
  "WipMemBlock": "d6117327-7717-40b0-9c4d-238b72e93712||Sequence: vd13d/master r/0735857; Nov 19 2014 09:21:40 by eja",
  "dcmmeta_affine": [
    [-1.8948134183883667, 0.07610344141721725, 0.028315261006355286, 104.1009292602539],
    [0.0686531737446785, 1.854535698890686, -0.3917258679866791, -88.67115020751953],
    [0.04332808032631874, 0.389633446931839, 1.858964443206787, -108.25804901123047],
    [0.0, 0.0, 0.0, 1.0]
],
  "dcmmeta_reorient_transform": [
    [0.0, -1.0, 0.0, 115.0],
    [1.0, 0.0, 0.0, 0.0],
    [0.0, 0.0, 1.0, 0.0],
    [0.0, 0.0, 0.0, 1.0]
],
  "dcmmeta_shape": [116, 116, 72, 289],
  "dcmmeta_slice_dim": 2,
  "dcmmeta_version": 0.6,
  "global": {
    "const": {
      "AcquisitionMatrix": [116, 0, 0, 116],
      "AngioFlag": "N",
      "BitsAllocated": 16,
      "BitsStored": 16,
      "BodyPartExamined": "HEAD",
      "Columns": 1044,
      "EchoNumbers": 1,
      "EchoTime": 30.0,
      "EchoTrainLength": 50,
      "FlipAngle": 81.0,
      "HighBit": 15,
      "ImageOrientationPatient": [0.99908343482179, -0.0361989449073, 0.02284571409016, 0.04012726933233, 0.97784607236178, -0.2054430846307],
      "ImagePositionPatient": [-1027.3582441799, -953.24992814369, 97.235485666855],
      "ImageType": [
        "ORIGINAL",
        "PRIMARY",
        "M",
        "MB",
        "ND",
        "MOSAIC"
],
      "ImagedNucleus": "1H",
      "ImagingFrequency": 123.260584,
      "InPlanePhaseEncodingDirection": "COL",
      "LargestImagePixelValue": 65535,
      "MRAcquisitionType": "2D",
      "MagneticFieldStrength": 3.0,
      "Manufacturer": "SIEMENS",
      "ManufacturerModelName": "Prisma",
      "Modality": "MR",
      "NumberOfAverages": 1.0,
      "NumberOfPhaseEncodingSteps": 101,
      "PercentPhaseFieldOfView": 100.0,
      "PercentSampling": 100.0,
      "PerformedProcedureStepStartTime": "142241.591000",
      "PhotometricInterpretation": "MONOCHROME2",
      "PixelBandwidth": 1435.0,
      "PixelRepresentation": 0,
      "PixelSpacing": [1.8965517282486, 1.8965517282486],
      "ProtocolName": "mbep2d_bold_MB3_test2",
      "RepetitionTime": 2000.0,
      "Rows": 1044,
      "SAR": 0.05956991845228,
      "SamplesPerPixel": 1,
      "ScanOptions": [
        "PFP",
        "FS"
],
      "ScanningSequence": "EP",
      "SequenceName": "epfid2d1_116",
      "SequenceVariant": [
        "SK",
        "SS"
],
      "SeriesDescription": "mbep2d_bold_MB3_test2",
      "SeriesNumber": 9,
      "SeriesTime": "150051.797000",
      "SliceLocation": -86.087072621404,
      "SliceThickness": 1.8999999761581,
      "SmallestImagePixelValue": 0,
      "SoftwareVersions": "syngo MR D13D",
      "SpacingBetweenSlices": 1.8999999465549,
      "SpecificCharacterSet": "ISO_IR 100",
      "StudyID": "1",
      "StudyTime": "142241.543000",
      "TimeOfLastCalibration": ["123723.000000", "123723.000000"],
      "TransmitCoilName": "Body",
      "VariableFlipAngleFlag": "N",
      "WindowCenterWidthExplanation": "Algo1",
      "dBdt": 0.0},
    "slices": {}
  },
  "time": {
    "samples": {
      "AcquisitionNumber": [1, 2, 3, 4, 5, 6, 7, 8, 9, 10, 11, 12, 13, 14, 15, 16, 17, 18, 19, 20, 21, 22, 23, 24, 25, 26, 27, 28, 29, 30, 31, 32, 33, 34, 35, 36, 37, 38, 39, 40, 41, 42, 43, 44, 45, 46, 47, 48, 49, 50, 51, 52, 53, 54, 55, 56, 57, 58, 59, 60, 61, 62, 63, 64, 65, 66, 67, 68, 69, 70, 71, 72, 73, 74, 75, 76, 77, 78, 79, 80, 81, 82, 83, 84, 85, 86, 87, 88, 89, 90, 91, 92, 93, 94, 95, 96, 97, 98, 99, 100, 101, 102, 103, 104, 105, 106, 107, 108, 109, 110, 111, 112, 113, 114, 115, 116, 117, 118, 119, 120, 121, 122, 123, 124, 125, 126, 127, 128, 129, 130, 131, 132, 133, 134, 135, 136, 137, 138, 139, 140, 141, 142, 143, 144, 145, 146, 147, 148, 149, 150, 151, 152, 153, 154, 155, 156, 157, 158, 159, 160, 161, 162, 163, 164, 165, 166, 167, 168, 169, 170, 171, 172, 173, 174, 175, 176, 177, 178, 179, 180, 181, 182, 183, 184, 185, 186, 187, 188, 189, 190, 191, 192, 193, 194, 195, 196, 197, 198, 199, 200, 201, 202, 203, 204, 205, 206, 207, 208, 209, 210, 211, 212, 213, 214, 215, 216, 217, 218, 219, 220, 221, 222, 223, 224, 225, 226, 227, 228, 229, 230, 231, 232, 233, 234, 235, 236, 237, 238, 239, 240, 241, 242, 243, 244, 245, 246, 247, 248, 249, 250, 251, 252, 253, 254, 255, 256, 257, 258, 259, 260, 261, 262, 263, 264, 265, 266, 267, 268, 269, 270, 271, 272, 273, 274, 275, 276, 277, 278, 279, 280, 281, 282, 283, 284, 285, 286, 287, 288, 289],
      "AcquisitionTime": ["150032.775000", "150034.775000", "150036.775000", "150038.775000", "150040.775000", "150042.775000", "150044.775000", "150046.775000", "150048.775000", "150050.775000", "150052.775000", "150054.775000", "150056.775000", "150058.775000", "150100.775000", "150102.775000", "150104.775000", "150106.775000", "150108.775000", "150110.775000", "150112.775000", "150114.775000", "150116.775000", "150118.775000", "150120.775000", "150122.775000", "150124.775000", "150126.775000", "150128.775000", "150130.775000", "150132.775000", "150134.775000", "150136.775000", "150138.775000", "150140.775000", "150142.775000", "150144.775000", "150146.775000", "150148.775000", "150150.775000", "150152.775000", "150154.775000", "150156.775000", "150158.775000", "150200.775000", "150202.775000", "150204.775000", "150206.775000", "150208.775000", "150210.775000", "150212.775000", "150214.775000", "150216.775000", "150218.775000", "150220.775000", "150222.775000", "150224.775000", "150226.775000", "150228.775000", "150230.775000", "150232.775000", "150234.775000", "150236.775000", "150238.775000", "150240.775000", "150242.775000", "150244.775000", "150246.775000", "150248.775000", "150250.775000", "150252.775000", "150254.775000", "150256.775000", "150258.775000", "150300.775000", "150302.775000", "150304.775000", "150306.775000", "150308.775000", "150310.775000", "150312.775000", "150314.775000", "150316.775000", "150318.775000", "150320.775000", "150322.775000", "150324.775000", "150326.775000", "150328.775000", "150330.775000", "150332.775000", "150334.775000", "150336.775000", "150338.775000", "150340.775000", "150342.775000", "150344.775000", "150346.775000", "150348.775000", "150350.775000", "150352.775000", "150354.775000", "150356.775000", "150358.775000", "150400.775000", "150402.775000", "150404.775000", "150406.775000", "150408.775000", "150410.775000", "150412.775000", "150414.775000", "150416.775000", "150418.775000", "150420.775000", "150422.775000", "150424.775000", "150426.775000", "150428.775000", "150430.775000", "150432.775000", "150434.775000", "150436.775000", "150438.775000", "150440.775000", "150442.775000", "150444.775000", "150446.775000", "150448.775000", "150450.775000", "150452.775000", "150454.775000", "150456.775000", "150458.775000", "150500.775000", "150502.775000", "150504.775000", "150506.775000", "150508.775000", "150510.775000", "150512.775000", "150514.775000", "150516.775000", "150518.775000", "150520.775000", "150522.775000", "150524.775000", "150526.775000", "150528.777500", "150530.777500", "150532.777500", "150534.777500", "150536.777500", "150538.777500", "150540.777500", "150542.777500", "150544.777500", "150546.777500", "150548.777500", "150550.777500", "150552.777500", "150554.777500", "150556.777500", "150558.777500", "150600.777500", "150602.777500", "150604.777500", "150606.777500", "150608.777500", "150610.777500", "150612.777500", "150614.777500", "150616.777500", "150618.777500", "150620.777500", "150622.777500", "150624.777500", "150626.777500", "150628.777500", "150630.777500", "150632.777500", "150634.777500", "150636.777500", "150638.777500", "150640.777500", "150642.777500", "150644.777500", "150646.777500", "150648.777500", "150650.777500", "150652.777500", "150654.777500", "150656.777500", "150658.777500", "150700.777500", "150702.777500", "150704.777500", "150706.777500", "150708.777500", "150710.777500", "150712.777500", "150714.777500", "150716.777500", "150718.777500", "150720.777500", "150722.777500", "150724.777500", "150726.777500", "150728.777500", "150730.777500", "150732.777500", "150734.777500", "150736.777500", "150738.777500", "150740.777500", "150742.777500", "150744.777500", "150746.777500", "150748.777500", "150750.777500", "150752.777500", "150754.777500", "150756.777500", "150758.777500", "150800.777500", "150802.777500", "150804.777500", "150806.777500", "150808.777500", "150810.777500", "150812.777500", "150814.777500", "150816.777500", "150818.777500", "150820.777500", "150822.777500", "150824.777500", "150826.777500", "150828.777500", "150830.777500", "150832.777500", "150834.777500", "150836.777500", "150838.777500", "150840.777500", "150842.777500", "150844.777500", "150846.777500", "150848.777500", "150850.777500", "150852.777500", "150854.777500", "150856.777500", "150858.777500", "150900.777500", "150902.777500", "150904.777500", "150906.777500", "150908.777500", "150910.777500", "150912.777500", "150914.777500", "150916.777500", "150918.777500", "150920.777500", "150922.777500", "150924.777500", "150926.777500", "150928.777500", "150930.777500", "150932.777500", "150934.777500", "150936.777500", "150938.777500", "150940.777500", "150942.777500", "150944.777500", "150946.777500", "150948.777500", "150950.777500", "150952.777500", "150954.777500", "150956.777500", "150958.777500", "151000.777500", "151002.777500", "151004.777500", "151006.777500", "151008.777500"],
      "ContentTime": ["150051.803000", "150052.795000", "150053.796000", "150054.795000", "150054.799000", "150055.794000", "150056.796000", "150057.795000", "150058.795000", "150059.795000", "150059.799000", "150100.795000", "150101.795000", "150102.796000", "150104.295000", "150106.295000", "150108.295000", "150110.296000", "150112.296000", "150114.296000", "150116.296000", "150118.296000", "150120.296000", "150122.296000", "150124.295000", "150126.295000", "150128.296000", "150130.296000", "150132.296000", "150134.296000", "150136.296000", "150138.296000", "150140.296000", "150142.295000", "150144.296000", "150146.296000", "150148.295000", "150150.296000", "150152.297000", "150154.298000", "150156.299000", "150158.297000", "150200.298000", "150202.296000", "150204.296000", "150206.296000", "150208.296000", "150210.296000", "150212.296000", "150214.296000", "150216.295000", "150218.295000", "150220.297000", "150222.296000", "150224.296000", "150226.296000", "150228.296000", "150230.296000", "150232.296000", "150234.295000", "150236.295000", "150238.296000", "150240.296000", "150242.295000", "150244.296000", "150246.296000", "150248.296000", "150250.296000", "150252.294000", "150254.296000", "150256.296000", "150258.296000", "150300.296000", "150302.296000", "150304.296000", "150306.297000", "150308.296000", "150310.295000", "150312.296000", "150314.295000", "150316.296000", "150318.296000", "150320.296000", "150322.296000", "150324.296000", "150326.295000", "150328.295000", "150330.296000", "150332.296000", "150334.296000", "150336.297000", "150338.296000", "150340.296000", "150342.296000", "150344.295000", "150346.296000", "150348.296000", "150350.297000", "150352.296000", "150354.296000", "150356.296000", "150358.296000", "150400.297000", "150402.295000", "150404.296000", "150406.297000", "150408.296000", "150410.296000", "150412.296000", "150414.296000", "150416.296000", "150418.296000", "150420.295000", "150422.295000", "150424.295000", "150426.296000", "150428.295000", "150430.296000", "150432.296000", "150434.296000", "150436.294000", "150438.294000", "150440.294000", "150442.295000", "150444.295000", "150446.296000", "150448.295000", "150450.295000", "150452.296000", "150454.293000", "150456.294000", "150458.295000", "150500.295000", "150502.294000", "150504.294000", "150506.294000", "150508.295000", "150510.294000", "150512.294000", "150514.295000", "150516.294000", "150518.295000", "150520.295000", "150522.295000", "150524.295000", "150526.294000", "150528.295000", "150530.294000", "150532.295000", "150534.295000", "150536.295000", "150538.294000", "150540.294000", "150542.294000", "150544.301000", "150546.294000", "150548.293000", "150550.295000", "150552.295000", "150554.294000", "150556.295000", "150558.295000", "150600.294000", "150602.294000", "150604.294000", "150606.295000", "150608.295000", "150610.295000", "150612.295000", "150614.295000", "150616.295000", "150618.294000", "150620.294000", "150622.294000", "150624.295000", "150626.295000", "150628.316000", "150630.295000", "150632.295000", "150634.295000", "150636.295000", "150638.294000", "150640.294000", "150642.295000", "150644.295000", "150646.295000", "150648.295000", "150650.295000", "150652.296000", "150654.295000", "150656.295000", "150658.295000", "150700.294000", "150702.296000", "150704.296000", "150706.297000", "150708.296000", "150710.296000", "150712.295000", "150714.295000", "150716.296000", "150718.297000", "150720.296000", "150722.294000", "150724.296000", "150726.295000", "150728.294000", "150730.296000", "150732.295000", "150734.297000", "150736.296000", "150738.296000", "150740.296000", "150742.296000", "150744.296000", "150746.296000", "150748.296000", "150750.295000", "150752.296000", "150754.294000", "150756.296000", "150758.296000", "150800.297000", "150802.294000", "150804.296000", "150806.295000", "150808.295000", "150810.296000", "150812.296000", "150814.297000", "150816.296000", "150818.296000", "150820.296000", "150822.297000", "150824.295000", "150826.296000", "150828.296000", "150830.297000", "150832.296000", "150834.296000", "150836.296000", "150838.297000", "150840.296000", "150842.295000", "150844.296000", "150846.296000", "150848.296000", "150850.294000", "150852.295000", "150854.295000", "150856.297000", "150858.295000", "150900.295000", "150902.295000", "150904.295000", "150906.294000", "150908.296000", "150910.296000", "150912.296000", "150914.294000", "150916.293000", "150918.294000", "150920.296000", "150922.296000", "150924.296000", "150926.296000", "150928.295000", "150930.296000", "150932.296000", "150934.296000", "150936.296000", "150938.296000", "150940.297000", "150942.296000", "150944.296000", "150946.296000", "150948.297000", "150950.296000", "150952.295000", "150954.296000", "150956.296000", "150958.296000", "151000.296000", "151002.296000", "151004.296000", "151006.296000", "151008.295000", "151010.295000", "151011.908000"],
      "InstanceCreationTime": ["150051.803000", "150052.795000", "150053.796000", "150054.795000", "150054.799000", "150055.794000", "150056.796000", "150057.795000", "150058.795000", "150059.795000", "150059.799000", "150100.795000", "150101.795000", "150102.796000", "150104.295000", "150106.295000", "150108.295000", "150110.296000", "150112.296000", "150114.296000", "150116.296000", "150118.296000", "150120.296000", "150122.296000", "150124.295000", "150126.295000", "150128.296000", "150130.296000", "150132.296000", "150134.296000", "150136.296000", "150138.296000", "150140.296000", "150142.295000", "150144.296000", "150146.296000", "150148.295000", "150150.296000", "150152.297000", "150154.298000", "150156.299000", "150158.297000", "150200.298000", "150202.296000", "150204.296000", "150206.296000", "150208.296000", "150210.296000", "150212.296000", "150214.296000", "150216.295000", "150218.295000", "150220.297000", "150222.296000", "150224.296000", "150226.296000", "150228.296000", "150230.296000", "150232.296000", "150234.295000", "150236.295000", "150238.296000", "150240.296000", "150242.295000", "150244.296000", "150246.296000", "150248.296000", "150250.296000", "150252.294000", "150254.296000", "150256.296000", "150258.296000", "150300.296000", "150302.296000", "150304.296000", "150306.297000", "150308.296000", "150310.295000", "150312.296000", "150314.295000", "150316.296000", "150318.296000", "150320.296000", "150322.296000", "150324.296000", "150326.295000", "150328.295000", "150330.296000", "150332.296000", "150334.296000", "150336.297000", "150338.296000", "150340.296000", "150342.296000", "150344.295000", "150346.296000", "150348.296000", "150350.297000", "150352.296000", "150354.296000", "150356.296000", "150358.296000", "150400.297000", "150402.295000", "150404.296000", "150406.297000", "150408.296000", "150410.296000", "150412.296000", "150414.296000", "150416.296000", "150418.296000", "150420.295000", "150422.295000", "150424.295000", "150426.296000", "150428.295000", "150430.296000", "150432.296000", "150434.296000", "150436.294000", "150438.294000", "150440.294000", "150442.295000", "150444.295000", "150446.296000", "150448.295000", "150450.295000", "150452.296000", "150454.293000", "150456.294000", "150458.295000", "150500.295000", "150502.294000", "150504.294000", "150506.294000", "150508.295000", "150510.294000", "150512.294000", "150514.295000", "150516.294000", "150518.295000", "150520.295000", "150522.295000", "150524.295000", "150526.294000", "150528.295000", "150530.294000", "150532.295000", "150534.295000", "150536.295000", "150538.294000", "150540.294000", "150542.294000", "150544.301000", "150546.294000", "150548.293000", "150550.295000", "150552.295000", "150554.294000", "150556.295000", "150558.295000", "150600.294000", "150602.294000", "150604.294000", "150606.295000", "150608.295000", "150610.295000", "150612.295000", "150614.295000", "150616.295000", "150618.294000", "150620.294000", "150622.294000", "150624.295000", "150626.295000", "150628.316000", "150630.295000", "150632.295000", "150634.295000", "150636.295000", "150638.294000", "150640.294000", "150642.295000", "150644.295000", "150646.295000", "150648.295000", "150650.295000", "150652.296000", "150654.295000", "150656.295000", "150658.295000", "150700.294000", "150702.296000", "150704.296000", "150706.297000", "150708.296000", "150710.296000", "150712.295000", "150714.295000", "150716.296000", "150718.297000", "150720.296000", "150722.294000", "150724.296000", "150726.295000", "150728.294000", "150730.296000", "150732.295000", "150734.297000", "150736.296000", "150738.296000", "150740.296000", "150742.296000", "150744.296000", "150746.296000", "150748.296000", "150750.295000", "150752.296000", "150754.294000", "150756.296000", "150758.296000", "150800.297000", "150802.294000", "150804.296000", "150806.295000", "150808.295000", "150810.296000", "150812.296000", "150814.297000", "150816.296000", "150818.296000", "150820.296000", "150822.297000", "150824.295000", "150826.296000", "150828.296000", "150830.297000", "150832.296000", "150834.296000", "150836.296000", "150838.297000", "150840.296000", "150842.295000", "150844.296000", "150846.296000", "150848.296000", "150850.294000", "150852.295000", "150854.295000", "150856.297000", "150858.295000", "150900.295000", "150902.295000", "150904.295000", "150906.294000", "150908.296000", "150910.296000", "150912.296000", "150914.294000", "150916.293000", "150918.294000", "150920.296000", "150922.296000", "150924.296000", "150926.296000", "150928.295000", "150930.296000", "150932.296000", "150934.296000", "150936.296000", "150938.296000", "150940.297000", "150942.296000", "150944.296000", "150946.296000", "150948.297000", "150950.296000", "150952.295000", "150954.296000", "150956.296000", "150958.296000", "151000.296000", "151002.296000", "151004.296000", "151006.296000", "151008.295000", "151010.295000", "151011.908000"],
      "InstanceNumber": [1, 2, 3, 4, 5, 6, 7, 8, 9, 10, 11, 12, 13, 14, 15, 16, 17, 18, 19, 20, 21, 22, 23, 24, 25, 26, 27, 28, 29, 30, 31, 32, 33, 34, 35, 36, 37, 38, 39, 40, 41, 42, 43, 44, 45, 46, 47, 48, 49, 50, 51, 52, 53, 54, 55, 56, 57, 58, 59, 60, 61, 62, 63, 64, 65, 66, 67, 68, 69, 70, 71, 72, 73, 74, 75, 76, 77, 78, 79, 80, 81, 82, 83, 84, 85, 86, 87, 88, 89, 90, 91, 92, 93, 94, 95, 96, 97, 98, 99, 100, 101, 102, 103, 104, 105, 106, 107, 108, 109, 110, 111, 112, 113, 114, 115, 116, 117, 118, 119, 120, 121, 122, 123, 124, 125, 126, 127, 128, 129, 130, 131, 132, 133, 134, 135, 136, 137, 138, 139, 140, 141, 142, 143, 144, 145, 146, 147, 148, 149, 150, 151, 152, 153, 154, 155, 156, 157, 158, 159, 160, 161, 162, 163, 164, 165, 166, 167, 168, 169, 170, 171, 172, 173, 174, 175, 176, 177, 178, 179, 180, 181, 182, 183, 184, 185, 186, 187, 188, 189, 190, 191, 192, 193, 194, 195, 196, 197, 198, 199, 200, 201, 202, 203, 204, 205, 206, 207, 208, 209, 210, 211, 212, 213, 214, 215, 216, 217, 218, 219, 220, 221, 222, 223, 224, 225, 226, 227, 228, 229, 230, 231, 232, 233, 234, 235, 236, 237, 238, 239, 240, 241, 242, 243, 244, 245, 246, 247, 248, 249, 250, 251, 252, 253, 254, 255, 256, 257, 258, 259, 260, 261, 262, 263, 264, 265, 266, 267, 268, 269, 270, 271, 272, 273, 274, 275, 276, 277, 278, 279, 280, 281, 282, 283, 284, 285, 286, 287, 288, 289],
      "WindowCenter": [14959.0, 14941.0, 14974.0, 14957.0, 14955.0, 14957.0, 14951.0, 14948.0, 14942.0, 14938.0, 14937.0, 14937.0, 14933.0, 14934.0, 14949.0, 14932.0, 14927.0, 14929.0, 14938.0, 14940.0, 14940.0, 14925.0, 14931.0, 14926.0, 14937.0, 14927.0, 14936.0, 14923.0, 14920.0, 14932.0, 14931.0, 14926.0, 14931.0, 14929.0, 14922.0, 14928.0, 14924.0, 14928.0, 14928.0, 14915.0, 14924.0, 14919.0, 14937.0, 14927.0, 14920.0, 14924.0, 14918.0, 14926.0, 14925.0, 14924.0, 14916.0, 14930.0, 14932.0, 14937.0, 14917.0, 14930.0, 14928.0, 14924.0, 14914.0, 14923.0, 14924.0, 14925.0, 14910.0, 14921.0, 14940.0, 14924.0, 14923.0, 14906.0, 14923.0, 14921.0, 14924.0, 14915.0, 14919.0, 14929.0, 14930.0, 14922.0, 14918.0, 14912.0, 14930.0, 14933.0, 14927.0, 14918.0, 14926.0, 14927.0, 14924.0, 14915.0, 14923.0, 14925.0, 14923.0, 14916.0, 14916.0, 14920.0, 14910.0, 14923.0, 14921.0, 14924.0, 14919.0, 14922.0, 14922.0, 14930.0, 14917.0, 14915.0, 14934.0, 14919.0, 14928.0, 14921.0, 14917.0, 14916.0, 14917.0, 14924.0, 14925.0, 14929.0, 14916.0, 14922.0, 14925.0, 14920.0, 14930.0, 14920.0, 14914.0, 14921.0, 14928.0, 14932.0, 14925.0, 14919.0, 14915.0, 14920.0, 14928.0, 14929.0, 14927.0, 14914.0, 14916.0, 14917.0, 14924.0, 14931.0, 14940.0, 14915.0, 14920.0, 14912.0, 14922.0, 14921.0, 14925.0, 14917.0, 14922.0, 14916.0, 14917.0, 14928.0, 14924.0, 14929.0, 14925.0, 14911.0, 14903.0, 14915.0, 14912.0, 14917.0, 14914.0, 14910.0, 14915.0, 14911.0, 14912.0, 14915.0, 14920.0, 14911.0, 14915.0, 14913.0, 14913.0, 14915.0, 14919.0, 14917.0, 14912.0, 14917.0, 14920.0, 14916.0, 14919.0, 14912.0, 14913.0, 14909.0, 14917.0, 14920.0, 14912.0, 14919.0, 14909.0, 14912.0, 14913.0, 14920.0, 14903.0, 14915.0, 14909.0, 14917.0, 14921.0, 14911.0, 14911.0, 14922.0, 14919.0, 14915.0, 14922.0, 14913.0, 14907.0, 14920.0, 14913.0, 14911.0, 14908.0, 14913.0, 14908.0, 14926.0, 14905.0, 14917.0, 14919.0, 14907.0, 14913.0, 14919.0, 14914.0, 14916.0, 14915.0, 14914.0, 14925.0, 14914.0, 14921.0, 14917.0, 14917.0, 14916.0, 14907.0, 14917.0, 14920.0, 14921.0, 14916.0, 14919.0, 14906.0, 14918.0, 14920.0, 14916.0, 14917.0, 14923.0, 14909.0, 14917.0, 14914.0, 14914.0, 14918.0, 14926.0, 14915.0, 14915.0, 14914.0, 14918.0, 14916.0, 14920.0, 14908.0, 14914.0, 14909.0, 14913.0, 14914.0, 14926.0, 14908.0, 14910.0, 14911.0, 14905.0, 14908.0, 14922.0, 14916.0, 14910.0, 14908.0, 14914.0, 14920.0, 14930.0, 14911.0, 14919.0, 14917.0, 14929.0, 14906.0, 14907.0, 14915.0, 14916.0, 14918.0, 14921.0, 14925.0, 14914.0, 14914.0, 14914.0, 14920.0, 14918.0, 14910.0, 14914.0, 14908.0, 14911.0, 14899.0, 14911.0, 14918.0, 14908.0, 14902.0, 14903.0, 14912.0],
      "WindowWidth": [42018.0, 41970.0, 42106.0, 42162.0, 42109.0, 42039.0, 41975.0, 41897.0, 41877.0, 41870.0, 41914.0, 41989.0, 42014.0, 41956.0, 41914.0, 41953.0, 41974.0, 41964.0, 41992.0, 41968.0, 41947.0, 41943.0, 41949.0, 41946.0, 41885.0, 41831.0, 41841.0, 41900.0, 41982.0, 42028.0, 41966.0, 41888.0, 41880.0, 41906.0, 41924.0, 41921.0, 41960.0, 41906.0, 41875.0, 41901.0, 41911.0, 41938.0, 41928.0, 41919.0, 41939.0, 41928.0, 41965.0, 41944.0, 41883.0, 41839.0, 41864.0, 41923.0, 41998.0, 42003.0, 41948.0, 41874.0, 41877.0, 41884.0, 41900.0, 41897.0, 41899.0, 41873.0, 41910.0, 41906.0, 41903.0, 41930.0, 41911.0, 41891.0, 41899.0, 41878.0, 41824.0, 41842.0, 41863.0, 41846.0, 41848.0, 41849.0, 41844.0, 41870.0, 41863.0, 41823.0, 41845.0, 41906.0, 41900.0, 41888.0, 41853.0, 41799.0, 41808.0, 41858.0, 41896.0, 41872.0, 41842.0, 41820.0, 41853.0, 41850.0, 41820.0, 41853.0, 41847.0, 41836.0, 41868.0, 41845.0, 41859.0, 41858.0, 41835.0, 41822.0, 41831.0, 41821.0, 41842.0, 41856.0, 41847.0, 41810.0, 41797.0, 41802.0, 41845.0, 41849.0, 41840.0, 41836.0, 41833.0, 41862.0, 41856.0, 41894.0, 41875.0, 41809.0, 41840.0, 41819.0, 41796.0, 41833.0, 41816.0, 41773.0, 41756.0, 41750.0, 41769.0, 41845.0, 41870.0, 41817.0, 41814.0, 41812.0, 41786.0, 41810.0, 41790.0, 41715.0, 41751.0, 41800.0, 41789.0, 41784.0, 41800.0, 41771.0, 41811.0, 41800.0, 41750.0, 41747.0, 41738.0, 41724.0, 41738.0, 41741.0, 41750.0, 41777.0, 41785.0, 41764.0, 41781.0, 41797.0, 41803.0, 41792.0, 41785.0, 41766.0, 41751.0, 41767.0, 41770.0, 41738.0, 41735.0, 41741.0, 41774.0, 41767.0, 41754.0, 41764.0, 41763.0, 41714.0, 41722.0, 41760.0, 41762.0, 41771.0, 41788.0, 41778.0, 41778.0, 41773.0, 41798.0, 41812.0, 41791.0, 41710.0, 41703.0, 41746.0, 41748.0, 41790.0, 41758.0, 41724.0, 41717.0, 41734.0, 41785.0, 41818.0, 41812.0, 41763.0, 41731.0, 41733.0, 41743.0, 41750.0, 41755.0, 41726.0, 41757.0, 41742.0, 41765.0, 41786.0, 41781.0, 41738.0, 41771.0, 41795.0, 41762.0, 41765.0, 41742.0, 41741.0, 41770.0, 41781.0, 41799.0, 41782.0, 41773.0, 41728.0, 41676.0, 41695.0, 41711.0, 41784.0, 41787.0, 41753.0, 41754.0, 41728.0, 41728.0, 41783.0, 41795.0, 41780.0, 41767.0, 41750.0, 41794.0, 41764.0, 41734.0, 41729.0, 41725.0, 41710.0, 41695.0, 41719.0, 41742.0, 41733.0, 41748.0, 41718.0, 41725.0, 41730.0, 41744.0, 41707.0, 41679.0, 41672.0, 41677.0, 41714.0, 41726.0, 41706.0, 41697.0, 41682.0, 41718.0, 41787.0, 41783.0, 41648.0, 41665.0, 41667.0, 41692.0, 41707.0, 41724.0, 41700.0, 41704.0, 41676.0, 41658.0, 41720.0, 41760.0, 41741.0, 41715.0, 41673.0, 41712.0, 41714.0, 41700.0, 41685.0, 41681.0, 41681.0, 41703.0, 41749.0, 41714.0]
    },
    "slices": {}
  }
}