{
  "AcquisitionMatrixPE": 116,
  "AcquisitionNumber": 1,
  "AcquisitionTime": "15:22:9.567500",
  "BandwidthPerPixelPhaseEncode": 18.539,
  "BaseResolution": 116,
  "BodyPartExamined": "HEAD",
  "ConsistencyInfo": "N4_VD13D_LATEST_20130810",
  "ConversionSoftware": "dcm2niix",
  "ConversionSoftwareVersion": "v1.0.20190410  (JP2:OpenJPEG) (JP-LS:CharLS) GCC5.5.0",
  "DerivedVendorReportedEchoSpacing": 0.000930006,
  "DeviceSerialNumber": "66014",
  "DwellTime": 3e-06,
  "EchoTime": 0.03,
  "EchoTrainLength": 50,
  "EffectiveEchoSpacing": 0.000465003,
  "FlipAngle": 81,
  "ImageComments": "Unaliased_MB3_PE4",
  "ImageOrientationPatientDICOM": [0.999083, -0.0361989, 0.0228457, 0.0401273, 0.977846, -0.205443],
  "ImageType": [
    "ORIGINAL",
    "PRIMARY",
    "M",
    "MB",
    "ND",
    "MOSAIC"
],
  "ImagingFrequency": 123.261,
  "InPlanePhaseEncodingDirectionDICOM": "COL",
  "InstitutionAddress": "Yiheyuan_Road_5_Beijing_Haidian_CN_100871",
  "InstitutionName": "Peking_Univeristy",
  "InstitutionalDepartmentName": "Department",
  "MRAcquisitionType": "2D",
  "MagneticFieldStrength": 3,
  "Manufacturer": "Siemens",
  "ManufacturersModelName": "Prisma",
  "Modality": "MR",
  "MultibandAccelerationFactor": 3,
  "ParallelReductionFactorInPlane": 2,
  "PartialFourier": 0.875,
  "PatientPosition": "HFS",
  "PercentPhaseFOV": 100,
  "PhaseEncodingDirection": "j-",
  "PhaseEncodingSteps": 101,
  "PhaseResolution": 1,
  "PixelBandwidth": 1435,
  "ProcedureStepDescription": "Research_Projects_64CH",
  "ProtocolName": "mbep2d_bold_MB3_loca1",
  "PulseSequenceDetails": "%CustomerSeq%_cmrr_mbep2d_bold",
  "ReceiveCoilActiveElements": "HC1-7;NC1",
  "ReceiveCoilName": "HeadNeck_64",
  "ReconMatrixPE": 116,
  "RefLinesPE": 44,
  "RepetitionTime": 2,
  "SAR": 0.058458,
  "ScanOptions": "PFP_FS",
  "ScanningSequence": "EP",
  "SequenceName": "epfid2d1_116",
  "SequenceVariant": "SK_SS",
  "SeriesDescription": "mbep2d_bold_MB3_loca1",
  "SeriesNumber": 11,
  "ShimSetting": [-3465, -2078, -1963, 358, -40, -158, 46, 41],
  "SliceThickness": 1.9,
  "SliceTiming": [0, 0.9075, 1.815, 0.7425, 1.65, 0.5775, 1.485, 0.4125, 1.32, 0.2475, 1.155, 0.0825, 0.99, 1.8975, 0.825, 1.7325, 0.66, 1.5675, 0.495, 1.4025, 0.33, 1.2375, 0.165, 1.0725, 0, 0.9075, 1.815, 0.7425, 1.65, 0.5775, 1.485, 0.4125, 1.32, 0.2475, 1.155, 0.0825, 0.99, 1.8975, 0.825, 1.7325, 0.66, 1.5675, 0.495, 1.4025, 0.33, 1.2375, 0.165, 1.0725, 0, 0.9075, 1.815, 0.7425, 1.65, 0.5775, 1.485, 0.4125, 1.32, 0.2475, 1.155, 0.0825, 0.99, 1.8975, 0.825, 1.7325, 0.66, 1.5675, 0.495, 1.4025, 0.33, 1.2375, 0.165, 1.0725],
  "SoftwareVersions": "syngo_MR_D13D",
  "SpacingBetweenSlices": 1.9,
  "StationName": "AWP66014",
  "TaskName": "localizer",
  "TotalReadoutTime": 0.0534753,
  "TxRefAmp": 220.26,
  "WipMemBlock": "75cd5a6c-fe75-458d-87d5-068a26f6cc2e||Sequence: vd13d/master r/0735857; Nov 19 2014 09:21:40 by eja",
  "dcmmeta_affine": [
    [-1.8948134183883667, 0.07610344141721725, 0.028315261006355286, 104.1009292602539],
    [0.0686531737446785, 1.854535698890686, -0.3917258679866791, -88.67115020751953],
    [0.04332808032631874, 0.389633446931839, 1.858964443206787, -108.25804901123047],
    [0.0, 0.0, 0.0, 1.0]
],
  "dcmmeta_reorient_transform": [
    [0.0, -1.0, 0.0, 115.0],
    [1.0, 0.0, 0.0, 0.0],
    [0.0, 0.0, 1.0, 0.0],
    [0.0, 0.0, 0.0, 1.0]
],
  "dcmmeta_shape": [116, 116, 72, 164],
  "dcmmeta_slice_dim": 2,
  "dcmmeta_version": 0.6,
  "global": {
    "const": {
      "AcquisitionMatrix": [116, 0, 0, 116],
      "AngioFlag": "N",
      "BitsAllocated": 16,
      "BitsStored": 16,
      "BodyPartExamined": "HEAD",
      "Columns": 1044,
      "EchoNumbers": 1,
      "EchoTime": 30.0,
      "EchoTrainLength": 50,
      "FlipAngle": 81.0,
      "HighBit": 15,
      "ImageOrientationPatient": [0.99908343482179, -0.0361989449073, 0.02284571409016, 0.04012726933233, 0.97784607236178, -0.2054430846307],
      "ImagePositionPatient": [-1027.3582441799, -953.24992814369, 97.235485666855],
      "ImageType": [
        "ORIGINAL",
        "PRIMARY",
        "M",
        "MB",
        "ND",
        "MOSAIC"
],
      "ImagedNucleus": "1H",
      "ImagingFrequency": 123.260587,
      "InPlanePhaseEncodingDirection": "COL",
      "LargestImagePixelValue": 65535,
      "MRAcquisitionType": "2D",
      "MagneticFieldStrength": 3.0,
      "Manufacturer": "SIEMENS",
      "ManufacturerModelName": "Prisma",
      "Modality": "MR",
      "NumberOfAverages": 1.0,
      "NumberOfPhaseEncodingSteps": 101,
      "PercentPhaseFieldOfView": 100.0,
      "PercentSampling": 100.0,
      "PerformedProcedureStepStartTime": "142241.591000",
      "PhotometricInterpretation": "MONOCHROME2",
      "PixelBandwidth": 1435.0,
      "PixelRepresentation": 0,
      "PixelSpacing": [1.8965517282486, 1.8965517282486],
      "ProtocolName": "mbep2d_bold_MB3_loca1",
      "RepetitionTime": 2000.0,
      "Rows": 1044,
      "SAR": 0.05845800831106,
      "SamplesPerPixel": 1,
      "ScanOptions": [
        "PFP",
        "FS"
],
      "ScanningSequence": "EP",
      "SequenceName": "epfid2d1_116",
      "SequenceVariant": [
        "SK",
        "SS"
],
      "SeriesDescription": "mbep2d_bold_MB3_loca1",
      "SeriesNumber": 11,
      "SeriesTime": "152227.320000",
      "SliceLocation": -86.087072621404,
      "SliceThickness": 1.8999999761581,
      "SmallestImagePixelValue": 0,
      "SoftwareVersions": "syngo MR D13D",
      "SpacingBetweenSlices": 1.8999999465549,
      "SpecificCharacterSet": "ISO_IR 100",
      "StudyID": "1",
      "StudyTime": "142241.543000",
      "TimeOfLastCalibration": ["123723.000000", "123723.000000"],
      "TransmitCoilName": "Body",
      "VariableFlipAngleFlag": "N",
      "WindowCenterWidthExplanation": "Algo1",
      "dBdt": 0.0},
    "slices": {}
  },
  "time": {
    "samples": {
      "AcquisitionNumber": [1, 2, 3, 4, 5, 6, 7, 8, 9, 10, 11, 12, 13, 14, 15, 16, 17, 18, 19, 20, 21, 22, 23, 24, 25, 26, 27, 28, 29, 30, 31, 32, 33, 34, 35, 36, 37, 38, 39, 40, 41, 42, 43, 44, 45, 46, 47, 48, 49, 50, 51, 52, 53, 54, 55, 56, 57, 58, 59, 60, 61, 62, 63, 64, 65, 66, 67, 68, 69, 70, 71, 72, 73, 74, 75, 76, 77, 78, 79, 80, 81, 82, 83, 84, 85, 86, 87, 88, 89, 90, 91, 92, 93, 94, 95, 96, 97, 98, 99, 100, 101, 102, 103, 104, 105, 106, 107, 108, 109, 110, 111, 112, 113, 114, 115, 116, 117, 118, 119, 120, 121, 122, 123, 124, 125, 126, 127, 128, 129, 130, 131, 132, 133, 134, 135, 136, 137, 138, 139, 140, 141, 142, 143, 144, 145, 146, 147, 148, 149, 150, 151, 152, 153, 154, 155, 156, 157, 158, 159, 160, 161, 162, 163, 164],
      "AcquisitionTime": ["152209.567500", "152211.567500", "152213.567500", "152215.570000", "152217.570000", "152219.570000", "152221.570000", "152223.570000", "152225.570000", "152227.570000", "152229.570000", "152231.570000", "152233.570000", "152235.570000", "152237.570000", "152239.570000", "152241.570000", "152243.570000", "152245.570000", "152247.570000", "152249.570000", "152251.570000", "152253.570000", "152255.570000", "152257.570000", "152259.570000", "152301.570000", "152303.570000", "152305.570000", "152307.570000", "152309.570000", "152311.570000", "152313.570000", "152315.570000", "152317.570000", "152319.570000", "152321.570000", "152323.570000", "152325.570000", "152327.570000", "152329.570000", "152331.570000", "152333.570000", "152335.570000", "152337.570000", "152339.570000", "152341.570000", "152343.570000", "152345.570000", "152347.570000", "152349.570000", "152351.570000", "152353.570000", "152355.570000", "152357.570000", "152359.570000", "152401.570000", "152403.570000", "152405.570000", "152407.570000", "152409.570000", "152411.570000", "152413.570000", "152415.570000", "152417.570000", "152419.570000", "152421.570000", "152423.570000", "152425.570000", "152427.570000", "152429.570000", "152431.570000", "152433.570000", "152435.570000", "152437.570000", "152439.570000", "152441.570000", "152443.570000", "152445.570000", "152447.570000", "152449.570000", "152451.570000", "152453.570000", "152455.570000", "152457.570000", "152459.570000", "152501.570000", "152503.570000", "152505.570000", "152507.570000", "152509.570000", "152511.570000", "152513.570000", "152515.570000", "152517.570000", "152519.570000", "152521.570000", "152523.570000", "152525.570000", "152527.570000", "152529.570000", "152531.570000", "152533.570000", "152535.570000", "152537.570000", "152539.570000", "152541.570000", "152543.570000", "152545.570000", "152547.570000", "152549.570000", "152551.570000", "152553.570000", "152555.570000", "152557.570000", "152559.570000", "152601.570000", "152603.570000", "152605.570000", "152607.570000", "152609.570000", "152611.570000", "152613.570000", "152615.570000", "152617.570000", "152619.570000", "152621.570000", "152623.570000", "152625.570000", "152627.570000", "152629.570000", "152631.570000", "152633.570000", "152635.570000", "152637.570000", "152639.570000", "152641.570000", "152643.570000", "152645.570000", "152647.570000", "152649.570000", "152651.570000", "152653.570000", "152655.570000", "152657.570000", "152659.570000", "152701.570000", "152703.570000", "152705.570000", "152707.570000", "152709.570000", "152711.570000", "152713.570000", "152715.570000", "152717.570000", "152719.570000", "152721.570000", "152723.570000", "152725.570000", "152727.570000", "152729.570000", "152731.570000", "152733.570000", "152735.570000"],
      "ContentTime": ["152227.325000", "152228.319000", "152229.318000", "152229.322000", "152230.318000", "152231.319000", "152232.318000", "152233.318000", "152233.322000", "152234.318000", "152235.318000", "152236.318000", "152237.319000", "152238.318000", "152240.318000", "152242.318000", "152244.319000", "152246.320000", "152248.320000", "152250.320000", "152252.319000", "152254.319000", "152256.320000", "152258.318000", "152300.319000", "152302.319000", "152304.319000", "152306.319000", "152308.319000", "152310.319000", "152312.319000", "152314.318000", "152316.318000", "152318.319000", "152320.319000", "152322.319000", "152324.318000", "152326.319000", "152328.319000", "152330.319000", "152332.318000", "152334.317000", "152336.319000", "152338.319000", "152340.319000", "152342.319000", "152344.319000", "152346.319000", "152348.319000", "152350.318000", "152352.319000", "152354.319000", "152356.320000", "152358.319000", "152400.319000", "152402.318000", "152404.320000", "152406.319000", "152408.318000", "152410.319000", "152412.319000", "152414.319000", "152416.319000", "152418.320000", "152420.320000", "152422.319000", "152424.318000", "152426.318000", "152428.319000", "152430.319000", "152432.319000", "152434.319000", "152436.319000", "152438.319000", "152440.319000", "152442.318000", "152444.318000", "152446.319000", "152448.319000", "152450.320000", "152452.319000", "152454.319000", "152456.319000", "152458.319000", "152500.318000", "152502.318000", "152504.319000", "152506.320000", "152508.319000", "152510.319000", "152512.319000", "152514.319000", "152516.319000", "152518.318000", "152520.319000", "152522.319000", "152524.319000", "152526.319000", "152528.319000", "152530.319000", "152532.319000", "152534.318000", "152536.318000", "152538.319000", "152540.319000", "152542.319000", "152544.320000", "152546.319000", "152548.319000", "152550.319000", "152552.318000", "152554.318000", "152556.319000", "152558.319000", "152600.319000", "152602.319000", "152604.319000", "152606.320000", "152608.319000", "152610.318000", "152612.318000", "152614.319000", "152616.319000", "152618.319000", "152620.318000", "152622.319000", "152624.319000", "152626.319000", "152628.318000", "152630.319000", "152632.320000", "152634.319000", "152636.319000", "152638.319000", "152640.320000", "152642.319000", "152644.318000", "152646.318000", "152648.320000", "152650.319000", "152652.319000", "152654.319000", "152656.320000", "152658.319000", "152700.319000", "152702.318000", "152704.318000", "152706.319000", "152708.319000", "152710.319000", "152712.319000", "152714.320000", "152716.319000", "152718.319000", "152720.318000", "152722.316000", "152724.319000", "152726.319000", "152728.319000", "152730.319000", "152732.319000", "152734.320000", "152736.319000", "152738.223000"],
      "InstanceCreationTime": ["152227.325000", "152228.319000", "152229.318000", "152229.322000", "152230.318000", "152231.319000", "152232.318000", "152233.318000", "152233.322000", "152234.318000", "152235.318000", "152236.318000", "152237.319000", "152238.318000", "152240.318000", "152242.318000", "152244.319000", "152246.320000", "152248.320000", "152250.320000", "152252.319000", "152254.319000", "152256.320000", "152258.318000", "152300.319000", "152302.319000", "152304.319000", "152306.319000", "152308.319000", "152310.319000", "152312.319000", "152314.318000", "152316.318000", "152318.319000", "152320.319000", "152322.319000", "152324.318000", "152326.319000", "152328.319000", "152330.319000", "152332.318000", "152334.317000", "152336.319000", "152338.319000", "152340.319000", "152342.319000", "152344.319000", "152346.319000", "152348.319000", "152350.318000", "152352.319000", "152354.319000", "152356.320000", "152358.319000", "152400.319000", "152402.318000", "152404.320000", "152406.319000", "152408.318000", "152410.319000", "152412.319000", "152414.319000", "152416.319000", "152418.320000", "152420.320000", "152422.319000", "152424.318000", "152426.318000", "152428.319000", "152430.319000", "152432.319000", "152434.319000", "152436.319000", "152438.319000", "152440.319000", "152442.318000", "152444.318000", "152446.319000", "152448.319000", "152450.320000", "152452.319000", "152454.319000", "152456.319000", "152458.319000", "152500.318000", "152502.318000", "152504.319000", "152506.320000", "152508.319000", "152510.319000", "152512.319000", "152514.319000", "152516.319000", "152518.318000", "152520.319000", "152522.319000", "152524.319000", "152526.319000", "152528.319000", "152530.319000", "152532.319000", "152534.318000", "152536.318000", "152538.319000", "152540.319000", "152542.319000", "152544.320000", "152546.319000", "152548.319000", "152550.319000", "152552.318000", "152554.318000", "152556.319000", "152558.319000", "152600.319000", "152602.319000", "152604.319000", "152606.320000", "152608.319000", "152610.318000", "152612.318000", "152614.319000", "152616.319000", "152618.319000", "152620.318000", "152622.319000", "152624.319000", "152626.319000", "152628.318000", "152630.319000", "152632.320000", "152634.319000", "152636.319000", "152638.319000", "152640.320000", "152642.319000", "152644.318000", "152646.318000", "152648.320000", "152650.319000", "152652.319000", "152654.319000", "152656.320000", "152658.319000", "152700.319000", "152702.318000", "152704.318000", "152706.319000", "152708.319000", "152710.319000", "152712.319000", "152714.320000", "152716.319000", "152718.319000", "152720.318000", "152722.316000", "152724.319000", "152726.319000", "152728.319000", "152730.319000", "152732.319000", "152734.320000", "152736.319000", "152738.223000"],
      "InstanceNumber": [1, 2, 3, 4, 5, 6, 7, 8, 9, 10, 11, 12, 13, 14, 15, 16, 17, 18, 19, 20, 21, 22, 23, 24, 25, 26, 27, 28, 29, 30, 31, 32, 33, 34, 35, 36, 37, 38, 39, 40, 41, 42, 43, 44, 45, 46, 47, 48, 49, 50, 51, 52, 53, 54, 55, 56, 57, 58, 59, 60, 61, 62, 63, 64, 65, 66, 67, 68, 69, 70, 71, 72, 73, 74, 75, 76, 77, 78, 79, 80, 81, 82, 83, 84, 85, 86, 87, 88, 89, 90, 91, 92, 93, 94, 95, 96, 97, 98, 99, 100, 101, 102, 103, 104, 105, 106, 107, 108, 109, 110, 111, 112, 113, 114, 115, 116, 117, 118, 119, 120, 121, 122, 123, 124, 125, 126, 127, 128, 129, 130, 131, 132, 133, 134, 135, 136, 137, 138, 139, 140, 141, 142, 143, 144, 145, 146, 147, 148, 149, 150, 151, 152, 153, 154, 155, 156, 157, 158, 159, 160, 161, 162, 163, 164],
      "WindowCenter": [15015.0, 15008.0, 15009.0, 15014.0, 15007.0, 15015.0, 15005.0, 14998.0, 14996.0, 14993.0, 14987.0, 14999.0, 14995.0, 14994.0, 14992.0, 15002.0, 15001.0, 14988.0, 14993.0, 14999.0, 15003.0, 14997.0, 14993.0, 14986.0, 14994.0, 14989.0, 14993.0, 14998.0, 14986.0, 14998.0, 14995.0, 14994.0, 14995.0, 15002.0, 15001.0, 14987.0, 14981.0, 14992.0, 15001.0, 15001.0, 15002.0, 14999.0, 15004.0, 14996.0, 14996.0, 15002.0, 15002.0, 15002.0, 14992.0, 14993.0, 15002.0, 14986.0, 14988.0, 14990.0, 14993.0, 14998.0, 15006.0, 14994.0, 14999.0, 15005.0, 15002.0, 14997.0, 14987.0, 15000.0, 14993.0, 15003.0, 14996.0, 14992.0, 14991.0, 15001.0, 14998.0, 14990.0, 14991.0, 15003.0, 14988.0, 14995.0, 14999.0, 15000.0, 14997.0, 14997.0, 14983.0, 14997.0, 14995.0, 14995.0, 14992.0, 14995.0, 15000.0, 14993.0, 14986.0, 14991.0, 14993.0, 14997.0, 15004.0, 15001.0, 14990.0, 14990.0, 14992.0, 15000.0, 14994.0, 14998.0, 14990.0, 14994.0, 14986.0, 14995.0, 14993.0, 14997.0, 14995.0, 14996.0, 14989.0, 14995.0, 15002.0, 14991.0, 14996.0, 14997.0, 14995.0, 14998.0, 14993.0, 15003.0, 14990.0, 14992.0, 14997.0, 15005.0, 14998.0, 15005.0, 15007.0, 14998.0, 14996.0, 14997.0, 14997.0, 15018.0, 15001.0, 15005.0, 15008.0, 14996.0, 15001.0, 15002.0, 15016.0, 15020.0, 15004.0, 15017.0, 15014.0, 15011.0, 15007.0, 15006.0, 15010.0, 14993.0, 15002.0, 15003.0, 15004.0, 15014.0, 15010.0, 15000.0, 15013.0, 15007.0, 15001.0, 15005.0, 15006.0, 15008.0, 15002.0, 15006.0, 15017.0, 15003.0, 15009.0, 15005.0],
      "WindowWidth": [42127.0, 42079.0, 42170.0, 42220.0, 42212.0, 42130.0, 42062.0, 42083.0, 42050.0, 42001.0, 41998.0, 42011.0, 42035.0, 42077.0, 42061.0, 42089.0, 42104.0, 42070.0, 42018.0, 42027.0, 42065.0, 42141.0, 42135.0, 42112.0, 42124.0, 42100.0, 42076.0, 42067.0, 42072.0, 42053.0, 42081.0, 42137.0, 42155.0, 42090.0, 42030.0, 41985.0, 41990.0, 41992.0, 42030.0, 42073.0, 42090.0, 42102.0, 42078.0, 42085.0, 42068.0, 42044.0, 42048.0, 42076.0, 42109.0, 42109.0, 42046.0, 42044.0, 42045.0, 41957.0, 41932.0, 41973.0, 42054.0, 42082.0, 42084.0, 42093.0, 42074.0, 42071.0, 42115.0, 42101.0, 42108.0, 42102.0, 42083.0, 42120.0, 42104.0, 42074.0, 42026.0, 42002.0, 41976.0, 41947.0, 42005.0, 42055.0, 42118.0, 42123.0, 42115.0, 42040.0, 42041.0, 42058.0, 42055.0, 42068.0, 42096.0, 42082.0, 42031.0, 42053.0, 42058.0, 42035.0, 42023.0, 41998.0, 42023.0, 42050.0, 42078.0, 42076.0, 42051.0, 42059.0, 42083.0, 42102.0, 42093.0, 42068.0, 42074.0, 42082.0, 42037.0, 42027.0, 41996.0, 41982.0, 41989.0, 41980.0, 42007.0, 42081.0, 42099.0, 42115.0, 42083.0, 42087.0, 42141.0, 42107.0, 42090.0, 42094.0, 42085.0, 42108.0, 42101.0, 42050.0, 42010.0, 42016.0, 42011.0, 42028.0, 42068.0, 42078.0, 42090.0, 42064.0, 42025.0, 42028.0, 42032.0, 42093.0, 42109.0, 42068.0, 42050.0, 42050.0, 42032.0, 42059.0, 42084.0, 42050.0, 42013.0, 42020.0, 42061.0, 42108.0, 42109.0, 42107.0, 42113.0, 42102.0, 42089.0, 42096.0, 42107.0, 42138.0, 42126.0, 42113.0, 42105.0, 42097.0, 42080.0, 42079.0, 42056.0, 42049.0]
    },
    "slices": {}
  }
}