{
  "AcquisitionMatrixPE": 116,
  "AcquisitionNumber": 1,
  "AcquisitionTime": "15:28:36.645000",
  "BandwidthPerPixelPhaseEncode": 18.539,
  "BaseResolution": 116,
  "BodyPartExamined": "HEAD",
  "ConsistencyInfo": "N4_VD13D_LATEST_20130810",
  "ConversionSoftware": "dcm2niix",
  "ConversionSoftwareVersion": "v1.0.20190410  (JP2:OpenJPEG) (JP-LS:CharLS) GCC5.5.0",
  "DerivedVendorReportedEchoSpacing": 0.000930006,
  "DeviceSerialNumber": "66014",
  "DwellTime": 3e-06,
  "EchoTime": 0.03,
  "EchoTrainLength": 50,
  "EffectiveEchoSpacing": 0.000465003,
  "FlipAngle": 81,
  "ImageComments": "Unaliased_MB3_PE4",
  "ImageOrientationPatientDICOM": [0.999083, -0.0361989, 0.0228457, 0.0401273, 0.977846, -0.205443],
  "ImageType": [
    "ORIGINAL",
    "PRIMARY",
    "M",
    "MB",
    "ND",
    "MOSAIC"
],
  "ImagingFrequency": 123.261,
  "InPlanePhaseEncodingDirectionDICOM": "COL",
  "InstitutionAddress": "Yiheyuan_Road_5_Beijing_Haidian_CN_100871",
  "InstitutionName": "Peking_Univeristy",
  "InstitutionalDepartmentName": "Department",
  "MRAcquisitionType": "2D",
  "MagneticFieldStrength": 3,
  "Manufacturer": "Siemens",
  "ManufacturersModelName": "Prisma",
  "Modality": "MR",
  "MultibandAccelerationFactor": 3,
  "ParallelReductionFactorInPlane": 2,
  "PartialFourier": 0.875,
  "PatientPosition": "HFS",
  "PercentPhaseFOV": 100,
  "PhaseEncodingDirection": "j-",
  "PhaseEncodingSteps": 101,
  "PhaseResolution": 1,
  "PixelBandwidth": 1435,
  "ProcedureStepDescription": "Research_Projects_64CH",
  "ProtocolName": "mbep2d_bold_MB3_loca2",
  "PulseSequenceDetails": "%CustomerSeq%_cmrr_mbep2d_bold",
  "ReceiveCoilActiveElements": "HC1-7;NC1",
  "ReceiveCoilName": "HeadNeck_64",
  "ReconMatrixPE": 116,
  "RefLinesPE": 44,
  "RepetitionTime": 2,
  "SAR": 0.058458,
  "ScanOptions": "PFP_FS",
  "ScanningSequence": "EP",
  "SequenceName": "epfid2d1_116",
  "SequenceVariant": "SK_SS",
  "SeriesDescription": "mbep2d_bold_MB3_loca2",
  "SeriesNumber": 12,
  "ShimSetting": [-3465, -2078, -1963, 358, -40, -158, 46, 41],
  "SliceThickness": 1.9,
  "SliceTiming": [0, 0.9075, 1.815, 0.7425, 1.65, 0.5775, 1.485, 0.4125, 1.32, 0.2475, 1.155, 0.0825, 0.99, 1.8975, 0.825, 1.7325, 0.66, 1.5675, 0.495, 1.4025, 0.33, 1.2375, 0.165, 1.0725, 0, 0.9075, 1.815, 0.7425, 1.65, 0.5775, 1.485, 0.4125, 1.32, 0.2475, 1.155, 0.0825, 0.99, 1.8975, 0.825, 1.7325, 0.66, 1.5675, 0.495, 1.4025, 0.33, 1.2375, 0.165, 1.0725, 0, 0.9075, 1.815, 0.7425, 1.65, 0.5775, 1.485, 0.4125, 1.32, 0.2475, 1.155, 0.0825, 0.99, 1.8975, 0.825, 1.7325, 0.66, 1.5675, 0.495, 1.4025, 0.33, 1.2375, 0.165, 1.0725],
  "SoftwareVersions": "syngo_MR_D13D",
  "SpacingBetweenSlices": 1.9,
  "StationName": "AWP66014",
  "TaskName": "localizer",
  "TotalReadoutTime": 0.0534753,
  "TxRefAmp": 220.26,
  "WipMemBlock": "dd94f438-7cd6-4ade-bc70-2a6ed2b6cd07||Sequence: vd13d/master r/0735857; Nov 19 2014 09:21:40 by eja",
  "dcmmeta_affine": [
    [-1.8948134183883667, 0.07610344141721725, 0.028315261006355286, 104.1009292602539],
    [0.0686531737446785, 1.854535698890686, -0.3917258679866791, -88.67115020751953],
    [0.04332808032631874, 0.389633446931839, 1.858964443206787, -108.25804901123047],
    [0.0, 0.0, 0.0, 1.0]
],
  "dcmmeta_reorient_transform": [
    [0.0, -1.0, 0.0, 115.0],
    [1.0, 0.0, 0.0, 0.0],
    [0.0, 0.0, 1.0, 0.0],
    [0.0, 0.0, 0.0, 1.0]
],
  "dcmmeta_shape": [116, 116, 72, 164],
  "dcmmeta_slice_dim": 2,
  "dcmmeta_version": 0.6,
  "global": {
    "const": {
      "AcquisitionMatrix": [116, 0, 0, 116],
      "AngioFlag": "N",
      "BitsAllocated": 16,
      "BitsStored": 16,
      "BodyPartExamined": "HEAD",
      "Columns": 1044,
      "EchoNumbers": 1,
      "EchoTime": 30.0,
      "EchoTrainLength": 50,
      "FlipAngle": 81.0,
      "HighBit": 15,
      "ImageOrientationPatient": [0.99908343482179, -0.0361989449073, 0.02284571409016, 0.04012726933233, 0.97784607236178, -0.2054430846307],
      "ImagePositionPatient": [-1027.3582441799, -953.24992814369, 97.235485666855],
      "ImageType": [
        "ORIGINAL",
        "PRIMARY",
        "M",
        "MB",
        "ND",
        "MOSAIC"
],
      "ImagedNucleus": "1H",
      "ImagingFrequency": 123.260586,
      "InPlanePhaseEncodingDirection": "COL",
      "LargestImagePixelValue": 65535,
      "MRAcquisitionType": "2D",
      "MagneticFieldStrength": 3.0,
      "Manufacturer": "SIEMENS",
      "ManufacturerModelName": "Prisma",
      "Modality": "MR",
      "NumberOfAverages": 1.0,
      "NumberOfPhaseEncodingSteps": 101,
      "PercentPhaseFieldOfView": 100.0,
      "PercentSampling": 100.0,
      "PerformedProcedureStepStartTime": "142241.591000",
      "PhotometricInterpretation": "MONOCHROME2",
      "PixelBandwidth": 1435.0,
      "PixelRepresentation": 0,
      "PixelSpacing": [1.8965517282486, 1.8965517282486],
      "ProtocolName": "mbep2d_bold_MB3_loca2",
      "RepetitionTime": 2000.0,
      "Rows": 1044,
      "SAR": 0.05845800831106,
      "SamplesPerPixel": 1,
      "ScanOptions": [
        "PFP",
        "FS"
],
      "ScanningSequence": "EP",
      "SequenceName": "epfid2d1_116",
      "SequenceVariant": [
        "SK",
        "SS"
],
      "SeriesDescription": "mbep2d_bold_MB3_loca2",
      "SeriesNumber": 12,
      "SeriesTime": "152853.811000",
      "SliceLocation": -86.087072621404,
      "SliceThickness": 1.8999999761581,
      "SmallestImagePixelValue": 0,
      "SoftwareVersions": "syngo MR D13D",
      "SpacingBetweenSlices": 1.8999999465549,
      "SpecificCharacterSet": "ISO_IR 100",
      "StudyID": "1",
      "StudyTime": "142241.543000",
      "TimeOfLastCalibration": ["123723.000000", "123723.000000"],
      "TransmitCoilName": "Body",
      "VariableFlipAngleFlag": "N",
      "WindowCenterWidthExplanation": "Algo1",
      "dBdt": 0.0},
    "slices": {}
  },
  "time": {
    "samples": {
      "AcquisitionNumber": [1, 2, 3, 4, 5, 6, 7, 8, 9, 10, 11, 12, 13, 14, 15, 16, 17, 18, 19, 20, 21, 22, 23, 24, 25, 26, 27, 28, 29, 30, 31, 32, 33, 34, 35, 36, 37, 38, 39, 40, 41, 42, 43, 44, 45, 46, 47, 48, 49, 50, 51, 52, 53, 54, 55, 56, 57, 58, 59, 60, 61, 62, 63, 64, 65, 66, 67, 68, 69, 70, 71, 72, 73, 74, 75, 76, 77, 78, 79, 80, 81, 82, 83, 84, 85, 86, 87, 88, 89, 90, 91, 92, 93, 94, 95, 96, 97, 98, 99, 100, 101, 102, 103, 104, 105, 106, 107, 108, 109, 110, 111, 112, 113, 114, 115, 116, 117, 118, 119, 120, 121, 122, 123, 124, 125, 126, 127, 128, 129, 130, 131, 132, 133, 134, 135, 136, 137, 138, 139, 140, 141, 142, 143, 144, 145, 146, 147, 148, 149, 150, 151, 152, 153, 154, 155, 156, 157, 158, 159, 160, 161, 162, 163, 164],
      "AcquisitionTime": ["152836.645000", "152838.645000", "152840.645000", "152842.645000", "152844.645000", "152846.645000", "152848.645000", "152850.645000", "152852.645000", "152854.645000", "152856.645000", "152858.645000", "152900.645000", "152902.645000", "152904.645000", "152906.645000", "152908.645000", "152910.645000", "152912.645000", "152914.645000", "152916.645000", "152918.645000", "152920.645000", "152922.645000", "152924.645000", "152926.645000", "152928.645000", "152930.645000", "152932.645000", "152934.645000", "152936.645000", "152938.645000", "152940.645000", "152942.645000", "152944.645000", "152946.645000", "152948.645000", "152950.645000", "152952.645000", "152954.645000", "152956.645000", "152958.645000", "153000.645000", "153002.645000", "153004.645000", "153006.645000", "153008.645000", "153010.645000", "153012.645000", "153014.645000", "153016.645000", "153018.645000", "153020.645000", "153022.645000", "153024.645000", "153026.645000", "153028.645000", "153030.645000", "153032.645000", "153034.645000", "153036.645000", "153038.645000", "153040.645000", "153042.645000", "153044.645000", "153046.645000", "153048.645000", "153050.645000", "153052.645000", "153054.645000", "153056.645000", "153058.645000", "153100.645000", "153102.645000", "153104.645000", "153106.645000", "153108.645000", "153110.645000", "153112.645000", "153114.645000", "153116.645000", "153118.645000", "153120.645000", "153122.645000", "153124.645000", "153126.645000", "153128.645000", "153130.645000", "153132.645000", "153134.645000", "153136.645000", "153138.645000", "153140.645000", "153142.645000", "153144.645000", "153146.645000", "153148.645000", "153150.645000", "153152.645000", "153154.645000", "153156.645000", "153158.645000", "153200.645000", "153202.645000", "153204.645000", "153206.645000", "153208.645000", "153210.645000", "153212.645000", "153214.645000", "153216.645000", "153218.645000", "153220.645000", "153222.645000", "153224.645000", "153226.645000", "153228.645000", "153230.645000", "153232.645000", "153234.645000", "153236.645000", "153238.645000", "153240.645000", "153242.645000", "153244.645000", "153246.645000", "153248.645000", "153250.645000", "153252.645000", "153254.645000", "153256.645000", "153258.645000", "153300.645000", "153302.645000", "153304.645000", "153306.645000", "153308.645000", "153310.645000", "153312.645000", "153314.645000", "153316.645000", "153318.645000", "153320.645000", "153322.645000", "153324.645000", "153326.645000", "153328.645000", "153330.645000", "153332.645000", "153334.645000", "153336.645000", "153338.645000", "153340.645000", "153342.645000", "153344.645000", "153346.645000", "153348.645000", "153350.645000", "153352.645000", "153354.645000", "153356.645000", "153358.645000", "153400.645000", "153402.645000"],
      "ContentTime": ["152853.816000", "152854.809000", "152855.809000", "152855.813000", "152856.810000", "152857.809000", "152858.809000", "152859.810000", "152900.809000", "152900.814000", "152901.809000", "152902.810000", "152903.809000", "152905.310000", "152907.311000", "152909.311000", "152911.310000", "152913.309000", "152915.310000", "152917.310000", "152919.310000", "152921.310000", "152923.310000", "152925.311000", "152927.311000", "152929.310000", "152931.310000", "152933.310000", "152935.310000", "152937.311000", "152939.309000", "152941.311000", "152943.311000", "152945.310000", "152947.310000", "152949.310000", "152951.310000", "152953.310000", "152955.311000", "152957.310000", "152959.310000", "153001.309000", "153003.310000", "153005.310000", "153007.310000", "153009.310000", "153011.310000", "153013.309000", "153015.310000", "153017.309000", "153019.311000", "153021.310000", "153023.310000", "153025.310000", "153027.310000", "153029.310000", "153031.310000", "153033.308000", "153035.311000", "153037.311000", "153039.310000", "153041.310000", "153043.310000", "153045.310000", "153047.310000", "153049.310000", "153051.310000", "153053.310000", "153055.310000", "153057.310000", "153059.310000", "153101.310000", "153103.310000", "153105.310000", "153107.310000", "153109.310000", "153111.312000", "153113.309000", "153115.310000", "153117.310000", "153119.310000", "153121.310000", "153123.310000", "153125.310000", "153127.311000", "153129.311000", "153131.310000", "153133.310000", "153135.310000", "153137.309000", "153139.311000", "153141.311000", "153143.309000", "153145.311000", "153147.311000", "153149.310000", "153151.310000", "153153.310000", "153155.310000", "153157.310000", "153159.310000", "153201.309000", "153203.311000", "153205.310000", "153207.310000", "153209.310000", "153211.311000", "153213.310000", "153215.310000", "153217.310000", "153219.310000", "153221.311000", "153223.310000", "153225.311000", "153227.310000", "153229.310000", "153231.310000", "153233.310000", "153235.310000", "153237.311000", "153239.311000", "153241.310000", "153243.310000", "153245.310000", "153247.310000", "153249.310000", "153251.310000", "153253.309000", "153255.309000", "153257.310000", "153259.309000", "153301.311000", "153303.310000", "153305.310000", "153307.310000", "153309.310000", "153311.310000", "153313.311000", "153315.310000", "153317.310000", "153319.310000", "153321.310000", "153323.310000", "153325.309000", "153327.310000", "153329.310000", "153331.311000", "153333.310000", "153335.311000", "153337.310000", "153339.310000", "153341.310000", "153343.311000", "153345.310000", "153347.311000", "153349.311000", "153351.310000", "153353.311000", "153355.310000", "153357.310000", "153359.310000", "153401.310000", "153403.310000", "153404.838000"],
      "InstanceCreationTime": ["152853.816000", "152854.809000", "152855.809000", "152855.813000", "152856.810000", "152857.809000", "152858.809000", "152859.810000", "152900.809000", "152900.814000", "152901.809000", "152902.810000", "152903.809000", "152905.310000", "152907.311000", "152909.311000", "152911.310000", "152913.309000", "152915.310000", "152917.310000", "152919.310000", "152921.310000", "152923.310000", "152925.311000", "152927.311000", "152929.310000", "152931.310000", "152933.310000", "152935.310000", "152937.311000", "152939.309000", "152941.311000", "152943.311000", "152945.310000", "152947.310000", "152949.310000", "152951.310000", "152953.310000", "152955.311000", "152957.310000", "152959.310000", "153001.309000", "153003.310000", "153005.310000", "153007.310000", "153009.310000", "153011.310000", "153013.309000", "153015.310000", "153017.309000", "153019.311000", "153021.310000", "153023.310000", "153025.310000", "153027.310000", "153029.310000", "153031.310000", "153033.308000", "153035.311000", "153037.311000", "153039.310000", "153041.310000", "153043.310000", "153045.310000", "153047.310000", "153049.310000", "153051.310000", "153053.310000", "153055.310000", "153057.310000", "153059.310000", "153101.310000", "153103.310000", "153105.310000", "153107.310000", "153109.310000", "153111.312000", "153113.309000", "153115.310000", "153117.310000", "153119.310000", "153121.310000", "153123.310000", "153125.310000", "153127.311000", "153129.311000", "153131.310000", "153133.310000", "153135.310000", "153137.309000", "153139.311000", "153141.311000", "153143.309000", "153145.311000", "153147.311000", "153149.310000", "153151.310000", "153153.310000", "153155.310000", "153157.310000", "153159.310000", "153201.309000", "153203.311000", "153205.310000", "153207.310000", "153209.310000", "153211.311000", "153213.310000", "153215.310000", "153217.310000", "153219.310000", "153221.311000", "153223.310000", "153225.311000", "153227.310000", "153229.310000", "153231.310000", "153233.310000", "153235.310000", "153237.311000", "153239.311000", "153241.310000", "153243.310000", "153245.310000", "153247.310000", "153249.310000", "153251.310000", "153253.309000", "153255.309000", "153257.310000", "153259.309000", "153301.311000", "153303.310000", "153305.310000", "153307.310000", "153309.310000", "153311.310000", "153313.311000", "153315.310000", "153317.310000", "153319.310000", "153321.310000", "153323.310000", "153325.309000", "153327.310000", "153329.310000", "153331.311000", "153333.310000", "153335.311000", "153337.310000", "153339.310000", "153341.310000", "153343.311000", "153345.310000", "153347.311000", "153349.311000", "153351.310000", "153353.311000", "153355.310000", "153357.310000", "153359.310000", "153401.310000", "153403.310000", "153404.838000"],
      "InstanceNumber": [1, 2, 3, 4, 5, 6, 7, 8, 9, 10, 11, 12, 13, 14, 15, 16, 17, 18, 19, 20, 21, 22, 23, 24, 25, 26, 27, 28, 29, 30, 31, 32, 33, 34, 35, 36, 37, 38, 39, 40, 41, 42, 43, 44, 45, 46, 47, 48, 49, 50, 51, 52, 53, 54, 55, 56, 57, 58, 59, 60, 61, 62, 63, 64, 65, 66, 67, 68, 69, 70, 71, 72, 73, 74, 75, 76, 77, 78, 79, 80, 81, 82, 83, 84, 85, 86, 87, 88, 89, 90, 91, 92, 93, 94, 95, 96, 97, 98, 99, 100, 101, 102, 103, 104, 105, 106, 107, 108, 109, 110, 111, 112, 113, 114, 115, 116, 117, 118, 119, 120, 121, 122, 123, 124, 125, 126, 127, 128, 129, 130, 131, 132, 133, 134, 135, 136, 137, 138, 139, 140, 141, 142, 143, 144, 145, 146, 147, 148, 149, 150, 151, 152, 153, 154, 155, 156, 157, 158, 159, 160, 161, 162, 163, 164],
      "WindowCenter": [15034.0, 15027.0, 15041.0, 15034.0, 15028.0, 15018.0, 15016.0, 15018.0, 15021.0, 15021.0, 15020.0, 15018.0, 15015.0, 15018.0, 15019.0, 15025.0, 15025.0, 15030.0, 15023.0, 15024.0, 15028.0, 15019.0, 15015.0, 15024.0, 15023.0, 15027.0, 15017.0, 15023.0, 15029.0, 15026.0, 15021.0, 15013.0, 15025.0, 15021.0, 15024.0, 15033.0, 15027.0, 15024.0, 15029.0, 15023.0, 15028.0, 15019.0, 15028.0, 15027.0, 15032.0, 15009.0, 15028.0, 15013.0, 15014.0, 15025.0, 15038.0, 15024.0, 15017.0, 15034.0, 15037.0, 15025.0, 15019.0, 15032.0, 15029.0, 15033.0, 15041.0, 15024.0, 15026.0, 15036.0, 15029.0, 15036.0, 15022.0, 15033.0, 15034.0, 15023.0, 15020.0, 15017.0, 15025.0, 15032.0, 15030.0, 15037.0, 15031.0, 15028.0, 15031.0, 15033.0, 15035.0, 15029.0, 15038.0, 15041.0, 15034.0, 15031.0, 15028.0, 15039.0, 15043.0, 15035.0, 15034.0, 15039.0, 15035.0, 15043.0, 15037.0, 15030.0, 15026.0, 15028.0, 15029.0, 15030.0, 15034.0, 15027.0, 15038.0, 15031.0, 15032.0, 15031.0, 15023.0, 15041.0, 15040.0, 15036.0, 15044.0, 15042.0, 15048.0, 15045.0, 15031.0, 15048.0, 15042.0, 15033.0, 15050.0, 15048.0, 15042.0, 15042.0, 15036.0, 15046.0, 15038.0, 15033.0, 15047.0, 15043.0, 15053.0, 15041.0, 15044.0, 15052.0, 15052.0, 15045.0, 15050.0, 15049.0, 15050.0, 15046.0, 15041.0, 15042.0, 15049.0, 15047.0, 15053.0, 15044.0, 15044.0, 15048.0, 15053.0, 15041.0, 15057.0, 15040.0, 15065.0, 15066.0, 15048.0, 15064.0, 15053.0, 15047.0, 15056.0, 15070.0, 15065.0, 15074.0, 15071.0, 15072.0, 15069.0, 15067.0],
      "WindowWidth": [42261.0, 42163.0, 42210.0, 42247.0, 42209.0, 42153.0, 42123.0, 42124.0, 42112.0, 42114.0, 42095.0, 42050.0, 42092.0, 42095.0, 42067.0, 42092.0, 42135.0, 42082.0, 42043.0, 42045.0, 42054.0, 42127.0, 42138.0, 42119.0, 42134.0, 42138.0, 42188.0, 42208.0, 42186.0, 42121.0, 42101.0, 42094.0, 42106.0, 42162.0, 42134.0, 42085.0, 42063.0, 42078.0, 42158.0, 42195.0, 42151.0, 42158.0, 42199.0, 42182.0, 42129.0, 42176.0, 42185.0, 42196.0, 42168.0, 42166.0, 42168.0, 42179.0, 42171.0, 42147.0, 42107.0, 42094.0, 42146.0, 42175.0, 42214.0, 42222.0, 42170.0, 42150.0, 42170.0, 42180.0, 42204.0, 42207.0, 42190.0, 42191.0, 42179.0, 42179.0, 42146.0, 42144.0, 42152.0, 42147.0, 42205.0, 42211.0, 42219.0, 42215.0, 42204.0, 42192.0, 42177.0, 42218.0, 42256.0, 42230.0, 42208.0, 42202.0, 42229.0, 42272.0, 42232.0, 42176.0, 42194.0, 42183.0, 42198.0, 42232.0, 42238.0, 42258.0, 42285.0, 42300.0, 42290.0, 42274.0, 42235.0, 42269.0, 42284.0, 42276.0, 42262.0, 42246.0, 42254.0, 42242.0, 42227.0, 42223.0, 42222.0, 42260.0, 42268.0, 42262.0, 42217.0, 42194.0, 42232.0, 42236.0, 42254.0, 42238.0, 42232.0, 42218.0, 42240.0, 42252.0, 42241.0, 42191.0, 42175.0, 42130.0, 42216.0, 42274.0, 42290.0, 42196.0, 42154.0, 42204.0, 42256.0, 42296.0, 42208.0, 42190.0, 42215.0, 42291.0, 42270.0, 42251.0, 42244.0, 42231.0, 42233.0, 42206.0, 42169.0, 42203.0, 42236.0, 42261.0, 42228.0, 42419.0, 42385.0, 42300.0, 42095.0, 42004.0, 42060.0, 42208.0, 42347.0, 42445.0, 42442.0, 42322.0, 42279.0, 42294.0]
    },
    "slices": {}
  }
}