{
  "AcquisitionMatrixPE": 116,
  "AcquisitionNumber": 1,
  "AcquisitionTime": "09:48:15.832500",
  "BandwidthPerPixelPhaseEncode": 18.539,
  "BaseResolution": 116,
  "BodyPartExamined": "HEAD",
  "ConsistencyInfo": "N4_VD13D_LATEST_20130810",
  "ConversionSoftware": "dcm2niix",
  "ConversionSoftwareVersion": "v1.0.20190410  (JP2:OpenJPEG) (JP-LS:CharLS) GCC5.5.0",
  "DerivedVendorReportedEchoSpacing": 0.000930006,
  "DeviceSerialNumber": "66014",
  "DwellTime": 3e-06,
  "EchoTime": 0.03,
  "EchoTrainLength": 50,
  "EffectiveEchoSpacing": 0.000465003,
  "FlipAngle": 81,
  "ImageComments": "Unaliased_MB3_PE4",
  "ImageOrientationPatientDICOM": [0.999945, 0.0104833, 0.000490245, -0.0104718, 0.999755, -0.0194944],
  "ImageType": [
    "ORIGINAL",
    "PRIMARY",
    "M",
    "MB",
    "ND",
    "MOSAIC"
],
  "ImagingFrequency": 123.261,
  "InPlanePhaseEncodingDirectionDICOM": "COL",
  "InstitutionAddress": "Yiheyuan_Road_5_Beijing_Haidian_CN_100871",
  "InstitutionName": "Peking_Univeristy",
  "InstitutionalDepartmentName": "Department",
  "MRAcquisitionType": "2D",
  "MagneticFieldStrength": 3,
  "Manufacturer": "Siemens",
  "ManufacturersModelName": "Prisma",
  "Modality": "MR",
  "MultibandAccelerationFactor": 3,
  "ParallelReductionFactorInPlane": 2,
  "PartialFourier": 0.875,
  "PatientPosition": "HFS",
  "PercentPhaseFOV": 100,
  "PhaseEncodingDirection": "j-",
  "PhaseEncodingSteps": 101,
  "PhaseResolution": 1,
  "PixelBandwidth": 1435,
  "ProcedureStepDescription": "Research_Projects_64CH",
  "ProtocolName": "mbep2d_bold_MB3_loca2",
  "PulseSequenceDetails": "%CustomerSeq%_cmrr_mbep2d_bold",
  "ReceiveCoilActiveElements": "HC1-6",
  "ReceiveCoilName": "HeadNeck_64",
  "ReconMatrixPE": 116,
  "RefLinesPE": 44,
  "RepetitionTime": 2,
  "SAR": 0.0493648,
  "ScanOptions": "PFP_FS",
  "ScanningSequence": "EP",
  "SequenceName": "epfid2d1_116",
  "SequenceVariant": "SK_SS",
  "SeriesDescription": "mbep2d_bold_MB3_loca2",
  "SeriesNumber": 10,
  "ShimSetting": [-3450, -2097, -1978, 334, -21, -123, -39, 29],
  "SliceThickness": 1.9,
  "SliceTiming": [0, 0.9075, 1.815, 0.7425, 1.65, 0.5775, 1.485, 0.4125, 1.32, 0.2475, 1.155, 0.0825, 0.99, 1.8975, 0.825, 1.7325, 0.66, 1.5675, 0.495, 1.4025, 0.33, 1.2375, 0.165, 1.0725, 0, 0.9075, 1.815, 0.7425, 1.65, 0.5775, 1.485, 0.4125, 1.32, 0.2475, 1.155, 0.0825, 0.99, 1.8975, 0.825, 1.7325, 0.66, 1.5675, 0.495, 1.4025, 0.33, 1.2375, 0.165, 1.0725, 0, 0.9075, 1.815, 0.7425, 1.65, 0.5775, 1.485, 0.4125, 1.32, 0.2475, 1.155, 0.0825, 0.99, 1.8975, 0.825, 1.7325, 0.66, 1.5675, 0.495, 1.4025, 0.33, 1.2375, 0.165, 1.0725],
  "SoftwareVersions": "syngo_MR_D13D",
  "SpacingBetweenSlices": 1.9,
  "StationName": "AWP66014",
  "TaskName": "localizer",
  "TotalReadoutTime": 0.0534753,
  "TxRefAmp": 225.868,
  "WipMemBlock": "9c2885a0-7cc3-4deb-be4e-719732b8ecb9||Sequence: vd13d/master r/0735857; Nov 19 2014 09:21:40 by eja",
  "dcmmeta_affine": [
    [-1.8964473009109497, -0.01986030489206314, 0.001319534843787551, 110.60250091552734],
    [-0.0198822058737278, 1.8960872888565063, -0.037027642130851746, -98.0079345703125],
    [0.0009297753567807376, 0.03697221353650093, 1.8996386528015137, -63.26181411743164],
    [0.0, 0.0, 0.0, 1.0]
],
  "dcmmeta_reorient_transform": [
    [0.0, -1.0, 0.0, 115.0],
    [1.0, 0.0, 0.0, 0.0],
    [0.0, 0.0, 1.0, 0.0],
    [0.0, 0.0, 0.0, 1.0]
],
  "dcmmeta_shape": [116, 116, 72, 164],
  "dcmmeta_slice_dim": 2,
  "dcmmeta_version": 0.6,
  "global": {
    "const": {
      "AcquisitionMatrix": [116, 0, 0, 116],
      "AngioFlag": "N",
      "BitsAllocated": 16,
      "BitsStored": 16,
      "BodyPartExamined": "HEAD",
      "Columns": 1044,
      "EchoNumbers": 1,
      "EchoTime": 30.0,
      "EchoTrainLength": 50,
      "FlipAngle": 81.0,
      "HighBit": 15,
      "ImageOrientationPatient": [0.99994492805795, 0.0104833444484, 0.00049024519559, -0.0104717969774, 0.99975512416266, -0.0194944396833],
      "ImagePositionPatient": [-979.05492564986, -1009.0519567592, -42.286318912999],
      "ImageType": [
        "ORIGINAL",
        "PRIMARY",
        "M",
        "MB",
        "ND",
        "MOSAIC"
],
      "ImagedNucleus": "1H",
      "ImagingFrequency": 123.260558,
      "InPlanePhaseEncodingDirection": "COL",
      "LargestImagePixelValue": 65535,
      "MRAcquisitionType": "2D",
      "MagneticFieldStrength": 3.0,
      "Manufacturer": "SIEMENS",
      "ManufacturerModelName": "Prisma",
      "Modality": "MR",
      "NumberOfAverages": 1.0,
      "NumberOfPhaseEncodingSteps": 101,
      "PercentPhaseFieldOfView": 100.0,
      "PercentSampling": 100.0,
      "PerformedProcedureStepStartTime": "085441.746000",
      "PhotometricInterpretation": "MONOCHROME2",
      "PixelBandwidth": 1435.0,
      "PixelRepresentation": 0,
      "PixelSpacing": [1.8965517282486, 1.8965517282486],
      "ProtocolName": "mbep2d_bold_MB3_loca2",
      "RepetitionTime": 2000.0,
      "Rows": 1044,
      "SAR": 0.04936479949726,
      "SamplesPerPixel": 1,
      "ScanOptions": [
        "PFP",
        "FS"
],
      "ScanningSequence": "EP",
      "SequenceName": "epfid2d1_116",
      "SequenceVariant": [
        "SK",
        "SS"
],
      "SeriesDescription": "mbep2d_bold_MB3_loca2",
      "SeriesNumber": 10,
      "SeriesTime": "094827.945000",
      "SliceLocation": -61.262971055418,
      "SliceThickness": 1.8999999761581,
      "SmallestImagePixelValue": 0,
      "SoftwareVersions": "syngo MR D13D",
      "SpacingBetweenSlices": 1.8999999402839,
      "SpecificCharacterSet": "ISO_IR 100",
      "StudyID": "1",
      "StudyTime": "085441.690000",
      "TimeOfLastCalibration": ["123723.000000", "123723.000000"],
      "TransmitCoilName": "Body",
      "VariableFlipAngleFlag": "N",
      "WindowCenterWidthExplanation": "Algo1",
      "dBdt": 0.0},
    "slices": {}
  },
  "time": {
    "samples": {
      "AcquisitionNumber": [1, 2, 3, 4, 5, 6, 7, 8, 9, 10, 11, 12, 13, 14, 15, 16, 17, 18, 19, 20, 21, 22, 23, 24, 25, 26, 27, 28, 29, 30, 31, 32, 33, 34, 35, 36, 37, 38, 39, 40, 41, 42, 43, 44, 45, 46, 47, 48, 49, 50, 51, 52, 53, 54, 55, 56, 57, 58, 59, 60, 61, 62, 63, 64, 65, 66, 67, 68, 69, 70, 71, 72, 73, 74, 75, 76, 77, 78, 79, 80, 81, 82, 83, 84, 85, 86, 87, 88, 89, 90, 91, 92, 93, 94, 95, 96, 97, 98, 99, 100, 101, 102, 103, 104, 105, 106, 107, 108, 109, 110, 111, 112, 113, 114, 115, 116, 117, 118, 119, 120, 121, 122, 123, 124, 125, 126, 127, 128, 129, 130, 131, 132, 133, 134, 135, 136, 137, 138, 139, 140, 141, 142, 143, 144, 145, 146, 147, 148, 149, 150, 151, 152, 153, 154, 155, 156, 157, 158, 159, 160, 161, 162, 163, 164],
      "AcquisitionTime": ["094815.832500", "094817.835000", "094819.835000", "094821.835000", "094823.835000", "094825.835000", "094827.835000", "094829.835000", "094831.835000", "094833.835000", "094835.835000", "094837.835000", "094839.835000", "094841.835000", "094843.835000", "094845.835000", "094847.835000", "094849.835000", "094851.835000", "094853.835000", "094855.835000", "094857.835000", "094859.835000", "094901.835000", "094903.835000", "094905.835000", "094907.835000", "094909.835000", "094911.835000", "094913.835000", "094915.835000", "094917.835000", "094919.835000", "094921.835000", "094923.835000", "094925.835000", "094927.835000", "094929.835000", "094931.835000", "094933.835000", "094935.835000", "094937.835000", "094939.835000", "094941.835000", "094943.835000", "094945.835000", "094947.835000", "094949.835000", "094951.835000", "094953.835000", "094955.835000", "094957.835000", "094959.835000", "095001.835000", "095003.835000", "095005.835000", "095007.835000", "095009.835000", "095011.835000", "095013.835000", "095015.835000", "095017.835000", "095019.835000", "095021.835000", "095023.835000", "095025.835000", "095027.835000", "095029.835000", "095031.835000", "095033.835000", "095035.835000", "095037.835000", "095039.835000", "095041.835000", "095043.835000", "095045.835000", "095047.835000", "095049.835000", "095051.835000", "095053.835000", "095055.835000", "095057.835000", "095059.835000", "095101.835000", "095103.835000", "095105.835000", "095107.835000", "095109.835000", "095111.835000", "095113.835000", "095115.835000", "095117.835000", "095119.835000", "095121.835000", "095123.835000", "095125.835000", "095127.835000", "095129.835000", "095131.835000", "095133.835000", "095135.835000", "095137.835000", "095139.835000", "095141.835000", "095143.835000", "095145.835000", "095147.835000", "095149.835000", "095151.835000", "095153.835000", "095155.835000", "095157.835000", "095159.835000", "095201.835000", "095203.835000", "095205.835000", "095207.835000", "095209.835000", "095211.835000", "095213.835000", "095215.835000", "095217.835000", "095219.835000", "095221.835000", "095223.835000", "095225.835000", "095227.835000", "095229.835000", "095231.835000", "095233.835000", "095235.835000", "095237.835000", "095239.835000", "095241.835000", "095243.835000", "095245.835000", "095247.835000", "095249.835000", "095251.835000", "095253.835000", "095255.835000", "095257.835000", "095259.835000", "095301.835000", "095303.835000", "095305.835000", "095307.835000", "095309.835000", "095311.835000", "095313.835000", "095315.835000", "095317.835000", "095319.835000", "095321.835000", "095323.835000", "095325.835000", "095327.835000", "095329.835000", "095331.835000", "095333.835000", "095335.835000", "095337.835000", "095339.835000", "095341.835000"],
      "ContentTime": ["094827.950000", "094828.944000", "094828.949000", "094829.945000", "094829.949000", "094830.943000", "094831.944000", "094832.945000", "094834.945000", "094836.946000", "094838.947000", "094840.944000", "094842.945000", "094844.945000", "094846.945000", "094848.945000", "094850.945000", "094852.945000", "094854.944000", "094856.944000", "094858.944000", "094900.944000", "094902.946000", "094904.945000", "094906.945000", "094908.945000", "094910.945000", "094912.944000", "094914.944000", "094916.944000", "094918.944000", "094920.945000", "094922.946000", "094924.943000", "094926.945000", "094928.945000", "094930.944000", "094932.944000", "094934.944000", "094936.944000", "094938.945000", "094940.946000", "094942.945000", "094944.945000", "094946.945000", "094948.945000", "094950.944000", "094952.945000", "094954.945000", "094956.945000", "094958.945000", "095000.945000", "095002.945000", "095004.944000", "095006.942000", "095008.944000", "095010.944000", "095012.945000", "095014.945000", "095016.945000", "095018.945000", "095020.945000", "095022.944000", "095024.944000", "095026.944000", "095028.945000", "095030.945000", "095032.945000", "095034.945000", "095036.945000", "095038.945000", "095040.944000", "095042.944000", "095044.944000", "095046.944000", "095048.945000", "095050.945000", "095052.945000", "095054.944000", "095056.944000", "095058.944000", "095100.943000", "095102.944000", "095104.945000", "095106.945000", "095108.945000", "095110.945000", "095112.945000", "095114.944000", "095116.944000", "095118.944000", "095120.945000", "095122.945000", "095124.945000", "095126.946000", "095128.945000", "095130.945000", "095132.944000", "095134.944000", "095136.944000", "095138.944000", "095140.945000", "095142.945000", "095144.945000", "095146.944000", "095148.945000", "095150.944000", "095152.944000", "095154.944000", "095156.944000", "095158.946000", "095200.945000", "095202.945000", "095204.944000", "095206.945000", "095208.944000", "095210.944000", "095212.942000", "095214.945000", "095216.945000", "095218.945000", "095220.958000", "095222.945000", "095224.944000", "095226.944000", "095228.944000", "095230.944000", "095232.945000", "095234.945000", "095236.944000", "095238.945000", "095240.945000", "095242.944000", "095244.944000", "095246.944000", "095248.944000", "095250.945000", "095252.943000", "095254.945000", "095256.945000", "095258.945000", "095300.944000", "095302.944000", "095304.944000", "095306.944000", "095308.945000", "095310.945000", "095312.945000", "095314.945000", "095316.945000", "095318.944000", "095320.944000", "095322.944000", "095324.944000", "095326.944000", "095328.945000", "095330.945000", "095332.945000", "095334.945000", "095336.945000", "095338.944000", "095340.944000", "095342.944000", "095344.690000"],
      "InstanceCreationTime": ["094827.950000", "094828.944000", "094828.949000", "094829.945000", "094829.949000", "094830.943000", "094831.944000", "094832.945000", "094834.945000", "094836.946000", "094838.947000", "094840.944000", "094842.945000", "094844.945000", "094846.945000", "094848.945000", "094850.945000", "094852.945000", "094854.944000", "094856.944000", "094858.944000", "094900.944000", "094902.946000", "094904.945000", "094906.945000", "094908.945000", "094910.945000", "094912.944000", "094914.944000", "094916.944000", "094918.944000", "094920.945000", "094922.946000", "094924.943000", "094926.945000", "094928.945000", "094930.944000", "094932.944000", "094934.944000", "094936.944000", "094938.945000", "094940.946000", "094942.945000", "094944.945000", "094946.945000", "094948.945000", "094950.944000", "094952.945000", "094954.945000", "094956.945000", "094958.945000", "095000.945000", "095002.945000", "095004.944000", "095006.942000", "095008.944000", "095010.944000", "095012.945000", "095014.945000", "095016.945000", "095018.945000", "095020.945000", "095022.944000", "095024.944000", "095026.944000", "095028.945000", "095030.945000", "095032.945000", "095034.945000", "095036.945000", "095038.945000", "095040.944000", "095042.944000", "095044.944000", "095046.944000", "095048.945000", "095050.945000", "095052.945000", "095054.944000", "095056.944000", "095058.944000", "095100.943000", "095102.944000", "095104.945000", "095106.945000", "095108.945000", "095110.945000", "095112.945000", "095114.944000", "095116.944000", "095118.944000", "095120.945000", "095122.945000", "095124.945000", "095126.946000", "095128.945000", "095130.945000", "095132.944000", "095134.944000", "095136.944000", "095138.944000", "095140.945000", "095142.945000", "095144.945000", "095146.944000", "095148.945000", "095150.944000", "095152.944000", "095154.944000", "095156.944000", "095158.946000", "095200.945000", "095202.945000", "095204.944000", "095206.945000", "095208.944000", "095210.944000", "095212.942000", "095214.945000", "095216.945000", "095218.945000", "095220.958000", "095222.945000", "095224.944000", "095226.944000", "095228.944000", "095230.944000", "095232.945000", "095234.945000", "095236.944000", "095238.945000", "095240.945000", "095242.944000", "095244.944000", "095246.944000", "095248.944000", "095250.945000", "095252.943000", "095254.945000", "095256.945000", "095258.945000", "095300.944000", "095302.944000", "095304.944000", "095306.944000", "095308.945000", "095310.945000", "095312.945000", "095314.945000", "095316.945000", "095318.944000", "095320.944000", "095322.944000", "095324.944000", "095326.944000", "095328.945000", "095330.945000", "095332.945000", "095334.945000", "095336.945000", "095338.944000", "095340.944000", "095342.944000", "095344.690000"],
      "InstanceNumber": [1, 2, 3, 4, 5, 6, 7, 8, 9, 10, 11, 12, 13, 14, 15, 16, 17, 18, 19, 20, 21, 22, 23, 24, 25, 26, 27, 28, 29, 30, 31, 32, 33, 34, 35, 36, 37, 38, 39, 40, 41, 42, 43, 44, 45, 46, 47, 48, 49, 50, 51, 52, 53, 54, 55, 56, 57, 58, 59, 60, 61, 62, 63, 64, 65, 66, 67, 68, 69, 70, 71, 72, 73, 74, 75, 76, 77, 78, 79, 80, 81, 82, 83, 84, 85, 86, 87, 88, 89, 90, 91, 92, 93, 94, 95, 96, 97, 98, 99, 100, 101, 102, 103, 104, 105, 106, 107, 108, 109, 110, 111, 112, 113, 114, 115, 116, 117, 118, 119, 120, 121, 122, 123, 124, 125, 126, 127, 128, 129, 130, 131, 132, 133, 134, 135, 136, 137, 138, 139, 140, 141, 142, 143, 144, 145, 146, 147, 148, 149, 150, 151, 152, 153, 154, 155, 156, 157, 158, 159, 160, 161, 162, 163, 164],
      "WindowCenter": [17366.0, 17354.0, 17332.0, 17358.0, 17374.0, 17345.0, 17347.0, 17345.0, 17337.0, 17318.0, 17337.0, 17348.0, 17358.0, 17350.0, 17334.0, 17340.0, 17337.0, 17347.0, 17340.0, 17340.0, 17339.0, 17345.0, 17332.0, 17332.0, 17338.0, 17349.0, 17366.0, 17336.0, 17335.0, 17327.0, 17328.0, 17336.0, 17334.0, 17345.0, 17342.0, 17331.0, 17319.0, 17300.0, 17323.0, 17338.0, 17328.0, 17347.0, 17326.0, 17309.0, 17301.0, 17321.0, 17312.0, 17315.0, 17322.0, 17304.0, 17319.0, 17333.0, 17314.0, 17317.0, 17301.0, 17289.0, 17293.0, 17307.0, 17340.0, 17305.0, 17304.0, 17286.0, 17285.0, 17299.0, 17273.0, 17288.0, 17282.0, 17294.0, 17301.0, 17302.0, 17336.0, 17314.0, 17289.0, 17287.0, 17274.0, 17306.0, 17301.0, 17303.0, 17286.0, 17268.0, 17274.0, 17292.0, 17303.0, 17290.0, 17304.0, 17285.0, 17288.0, 17288.0, 17285.0, 17273.0, 17277.0, 17274.0, 17293.0, 17312.0, 17297.0, 17264.0, 17320.0, 17280.0, 17278.0, 17277.0, 17268.0, 17262.0, 17251.0, 17276.0, 17270.0, 17256.0, 17257.0, 17251.0, 17235.0, 17240.0, 17263.0, 17258.0, 17256.0, 17276.0, 17289.0, 17281.0, 17303.0, 17301.0, 17321.0, 17323.0, 17290.0, 17303.0, 17280.0, 17271.0, 17276.0, 17254.0, 17257.0, 17236.0, 17255.0, 17273.0, 17269.0, 17286.0, 17274.0, 17266.0, 17251.0, 17243.0, 17271.0, 17283.0, 17273.0, 17234.0, 17236.0, 17235.0, 17244.0, 17247.0, 17250.0, 17241.0, 17207.0, 17245.0, 17242.0, 17258.0, 17247.0, 17265.0, 17305.0, 17294.0, 17298.0, 17288.0, 17278.0, 17268.0, 17284.0, 17296.0, 17284.0, 17294.0, 17282.0, 17293.0],
      "WindowWidth": [48195.0, 48085.0, 48123.0, 48154.0, 48126.0, 48119.0, 48106.0, 48116.0, 48136.0, 48163.0, 48203.0, 48260.0, 48229.0, 48158.0, 48084.0, 48102.0, 48177.0, 48220.0, 48203.0, 48153.0, 48177.0, 48142.0, 48132.0, 48133.0, 48201.0, 48234.0, 48206.0, 48174.0, 48134.0, 48155.0, 48153.0, 48082.0, 48108.0, 48142.0, 48141.0, 48121.0, 48124.0, 48110.0, 48104.0, 48178.0, 48220.0, 48169.0, 48115.0, 48106.0, 48125.0, 48152.0, 48132.0, 48122.0, 48112.0, 48090.0, 48061.0, 48072.0, 48058.0, 48033.0, 48048.0, 48052.0, 48111.0, 48195.0, 48169.0, 48142.0, 48100.0, 48112.0, 48138.0, 48094.0, 48101.0, 48072.0, 48020.0, 48040.0, 48047.0, 48112.0, 48097.0, 48068.0, 48038.0, 48037.0, 48043.0, 48077.0, 48124.0, 48112.0, 48100.0, 48051.0, 48081.0, 48093.0, 48164.0, 48130.0, 48112.0, 48052.0, 48027.0, 48001.0, 47960.0, 47939.0, 47955.0, 47979.0, 48043.0, 48081.0, 48109.0, 47905.0, 48238.0, 48050.0, 48005.0, 47993.0, 47948.0, 47906.0, 47950.0, 47993.0, 47962.0, 47952.0, 47913.0, 47856.0, 47820.0, 47814.0, 47905.0, 47953.0, 47989.0, 47992.0, 48001.0, 48048.0, 48088.0, 48126.0, 48125.0, 48087.0, 48015.0, 48023.0, 48094.0, 48063.0, 47976.0, 47898.0, 47875.0, 47911.0, 47962.0, 47991.0, 48026.0, 48025.0, 48017.0, 47985.0, 47924.0, 47996.0, 48101.0, 48058.0, 47923.0, 47795.0, 47710.0, 47736.0, 47779.0, 47817.0, 47845.0, 47853.0, 47796.0, 47971.0, 48042.0, 48028.0, 47982.0, 47946.0, 48065.0, 47892.0, 48034.0, 47965.0, 47957.0, 47953.0, 47984.0, 47980.0, 47935.0, 47918.0, 47960.0, 47993.0]
    },
    "slices": {}
  }
}