{
  "AcquisitionMatrixPE": 116,
  "AcquisitionNumber": 1,
  "AcquisitionTime": "09:31:3.782500",
  "BandwidthPerPixelPhaseEncode": 18.539,
  "BaseResolution": 116,
  "BodyPartExamined": "HEAD",
  "ConsistencyInfo": "N4_VD13D_LATEST_20130810",
  "ConversionSoftware": "dcm2niix",
  "ConversionSoftwareVersion": "v1.0.20190410  (JP2:OpenJPEG) (JP-LS:CharLS) GCC5.5.0",
  "DerivedVendorReportedEchoSpacing": 0.000930006,
  "DeviceSerialNumber": "66014",
  "DwellTime": 3e-06,
  "EchoTime": 0.03,
  "EchoTrainLength": 50,
  "EffectiveEchoSpacing": 0.000465003,
  "FlipAngle": 81,
  "ImageComments": "Unaliased_MB3_PE4",
  "ImageOrientationPatientDICOM": [0.999945, 0.0104833, 0.000490245, -0.0104718, 0.999755, -0.0194944],
  "ImageType": [
    "ORIGINAL",
    "PRIMARY",
    "M",
    "MB",
    "ND",
    "MOSAIC"
],
  "ImagingFrequency": 123.261,
  "InPlanePhaseEncodingDirectionDICOM": "COL",
  "InstitutionAddress": "Yiheyuan_Road_5_Beijing_Haidian_CN_100871",
  "InstitutionName": "Peking_Univeristy",
  "InstitutionalDepartmentName": "Department",
  "MRAcquisitionType": "2D",
  "MagneticFieldStrength": 3,
  "Manufacturer": "Siemens",
  "ManufacturersModelName": "Prisma",
  "Modality": "MR",
  "MultibandAccelerationFactor": 3,
  "ParallelReductionFactorInPlane": 2,
  "PartialFourier": 0.875,
  "PatientPosition": "HFS",
  "PercentPhaseFOV": 100,
  "PhaseEncodingDirection": "j-",
  "PhaseEncodingSteps": 101,
  "PhaseResolution": 1,
  "PixelBandwidth": 1435,
  "ProcedureStepDescription": "Research_Projects_64CH",
  "ProtocolName": "mbep2d_bold_MB3_test3",
  "PulseSequenceDetails": "%CustomerSeq%_cmrr_mbep2d_bold",
  "ReceiveCoilActiveElements": "HC1-6",
  "ReceiveCoilName": "HeadNeck_64",
  "ReconMatrixPE": 116,
  "RefLinesPE": 44,
  "RepetitionTime": 2,
  "SAR": 0.0503037,
  "ScanOptions": "PFP_FS",
  "ScanningSequence": "EP",
  "SequenceName": "epfid2d1_116",
  "SequenceVariant": "SK_SS",
  "SeriesDescription": "mbep2d_bold_MB3_test3",
  "SeriesNumber": 8,
  "ShimSetting": [-3450, -2097, -1978, 334, -21, -123, -39, 29],
  "SliceThickness": 1.9,
  "SliceTiming": [0, 0.9075, 1.815, 0.7425, 1.65, 0.5775, 1.485, 0.4125, 1.32, 0.2475, 1.155, 0.0825, 0.99, 1.8975, 0.825, 1.7325, 0.66, 1.5675, 0.495, 1.4025, 0.33, 1.2375, 0.165, 1.0725, 0, 0.9075, 1.815, 0.7425, 1.65, 0.5775, 1.485, 0.4125, 1.32, 0.2475, 1.155, 0.0825, 0.99, 1.8975, 0.825, 1.7325, 0.66, 1.5675, 0.495, 1.4025, 0.33, 1.2375, 0.165, 1.0725, 0, 0.9075, 1.815, 0.7425, 1.65, 0.5775, 1.485, 0.4125, 1.32, 0.2475, 1.155, 0.0825, 0.99, 1.8975, 0.825, 1.7325, 0.66, 1.5675, 0.495, 1.4025, 0.33, 1.2375, 0.165, 1.0725],
  "SoftwareVersions": "syngo_MR_D13D",
  "SpacingBetweenSlices": 1.9,
  "StationName": "AWP66014",
  "TaskName": "retrieval",
  "TotalReadoutTime": 0.0534753,
  "TxRefAmp": 225.868,
  "WipMemBlock": "dc26b317-5703-409c-b257-f53443f2ceb4||Sequence: vd13d/master r/0735857; Nov 19 2014 09:21:40 by eja",
  "dcmmeta_affine": [
    [-1.8964473009109497, -0.01986030489206314, 0.001319534843787551, 110.60250091552734],
    [-0.0198822058737278, 1.8960872888565063, -0.037027642130851746, -98.0079345703125],
    [0.0009297753567807376, 0.03697221353650093, 1.8996386528015137, -63.26181411743164],
    [0.0, 0.0, 0.0, 1.0]
],
  "dcmmeta_reorient_transform": [
    [0.0, -1.0, 0.0, 115.0],
    [1.0, 0.0, 0.0, 0.0],
    [0.0, 0.0, 1.0, 0.0],
    [0.0, 0.0, 0.0, 1.0]
],
  "dcmmeta_shape": [116, 116, 72, 289],
  "dcmmeta_slice_dim": 2,
  "dcmmeta_version": 0.6,
  "global": {
    "const": {
      "AcquisitionMatrix": [116, 0, 0, 116],
      "AngioFlag": "N",
      "BitsAllocated": 16,
      "BitsStored": 16,
      "BodyPartExamined": "HEAD",
      "Columns": 1044,
      "EchoNumbers": 1,
      "EchoTime": 30.0,
      "EchoTrainLength": 50,
      "FlipAngle": 81.0,
      "HighBit": 15,
      "ImageOrientationPatient": [0.99994492805795, 0.0104833444484, 0.00049024519559, -0.0104717969774, 0.99975512416266, -0.0194944396833],
      "ImagePositionPatient": [-979.05492564986, -1009.0519567592, -42.286318912999],
      "ImageType": [
        "ORIGINAL",
        "PRIMARY",
        "M",
        "MB",
        "ND",
        "MOSAIC"
],
      "ImagedNucleus": "1H",
      "ImagingFrequency": 123.260559,
      "InPlanePhaseEncodingDirection": "COL",
      "LargestImagePixelValue": 65535,
      "MRAcquisitionType": "2D",
      "MagneticFieldStrength": 3.0,
      "Manufacturer": "SIEMENS",
      "ManufacturerModelName": "Prisma",
      "Modality": "MR",
      "NumberOfAverages": 1.0,
      "NumberOfPhaseEncodingSteps": 101,
      "PercentPhaseFieldOfView": 100.0,
      "PercentSampling": 100.0,
      "PerformedProcedureStepStartTime": "085441.746000",
      "PhotometricInterpretation": "MONOCHROME2",
      "PixelBandwidth": 1435.0,
      "PixelRepresentation": 0,
      "PixelSpacing": [1.8965517282486, 1.8965517282486],
      "ProtocolName": "mbep2d_bold_MB3_test3",
      "RepetitionTime": 2000.0,
      "Rows": 1044,
      "SAR": 0.05030375076568,
      "SamplesPerPixel": 1,
      "ScanOptions": [
        "PFP",
        "FS"
],
      "ScanningSequence": "EP",
      "SequenceName": "epfid2d1_116",
      "SequenceVariant": [
        "SK",
        "SS"
],
      "SeriesDescription": "mbep2d_bold_MB3_test3",
      "SeriesNumber": 8,
      "SeriesTime": "093114.930000",
      "SliceLocation": -61.262971055418,
      "SliceThickness": 1.8999999761581,
      "SmallestImagePixelValue": 0,
      "SoftwareVersions": "syngo MR D13D",
      "SpacingBetweenSlices": 1.8999999402839,
      "SpecificCharacterSet": "ISO_IR 100",
      "StudyID": "1",
      "StudyTime": "085441.690000",
      "TimeOfLastCalibration": ["123723.000000", "123723.000000"],
      "TransmitCoilName": "Body",
      "VariableFlipAngleFlag": "N",
      "WindowCenterWidthExplanation": "Algo1",
      "dBdt": 0.0},
    "slices": {}
  },
  "time": {
    "samples": {
      "AcquisitionNumber": [1, 2, 3, 4, 5, 6, 7, 8, 9, 10, 11, 12, 13, 14, 15, 16, 17, 18, 19, 20, 21, 22, 23, 24, 25, 26, 27, 28, 29, 30, 31, 32, 33, 34, 35, 36, 37, 38, 39, 40, 41, 42, 43, 44, 45, 46, 47, 48, 49, 50, 51, 52, 53, 54, 55, 56, 57, 58, 59, 60, 61, 62, 63, 64, 65, 66, 67, 68, 69, 70, 71, 72, 73, 74, 75, 76, 77, 78, 79, 80, 81, 82, 83, 84, 85, 86, 87, 88, 89, 90, 91, 92, 93, 94, 95, 96, 97, 98, 99, 100, 101, 102, 103, 104, 105, 106, 107, 108, 109, 110, 111, 112, 113, 114, 115, 116, 117, 118, 119, 120, 121, 122, 123, 124, 125, 126, 127, 128, 129, 130, 131, 132, 133, 134, 135, 136, 137, 138, 139, 140, 141, 142, 143, 144, 145, 146, 147, 148, 149, 150, 151, 152, 153, 154, 155, 156, 157, 158, 159, 160, 161, 162, 163, 164, 165, 166, 167, 168, 169, 170, 171, 172, 173, 174, 175, 176, 177, 178, 179, 180, 181, 182, 183, 184, 185, 186, 187, 188, 189, 190, 191, 192, 193, 194, 195, 196, 197, 198, 199, 200, 201, 202, 203, 204, 205, 206, 207, 208, 209, 210, 211, 212, 213, 214, 215, 216, 217, 218, 219, 220, 221, 222, 223, 224, 225, 226, 227, 228, 229, 230, 231, 232, 233, 234, 235, 236, 237, 238, 239, 240, 241, 242, 243, 244, 245, 246, 247, 248, 249, 250, 251, 252, 253, 254, 255, 256, 257, 258, 259, 260, 261, 262, 263, 264, 265, 266, 267, 268, 269, 270, 271, 272, 273, 274, 275, 276, 277, 278, 279, 280, 281, 282, 283, 284, 285, 286, 287, 288, 289],
      "AcquisitionTime": ["093103.782500", "093105.782500", "093107.782500", "093109.782500", "093111.782500", "093113.782500", "093115.782500", "093117.782500", "093119.782500", "093121.782500", "093123.782500", "093125.782500", "093127.782500", "093129.782500", "093131.782500", "093133.782500", "093135.782500", "093137.782500", "093139.782500", "093141.782500", "093143.782500", "093145.782500", "093147.782500", "093149.782500", "093151.782500", "093153.782500", "093155.782500", "093157.782500", "093159.782500", "093201.782500", "093203.782500", "093205.782500", "093207.782500", "093209.782500", "093211.782500", "093213.782500", "093215.782500", "093217.782500", "093219.782500", "093221.782500", "093223.782500", "093225.782500", "093227.782500", "093229.782500", "093231.782500", "093233.782500", "093235.782500", "093237.782500", "093239.782500", "093241.782500", "093243.782500", "093245.782500", "093247.782500", "093249.782500", "093251.782500", "093253.782500", "093255.782500", "093257.782500", "093259.782500", "093301.782500", "093303.782500", "093305.782500", "093307.782500", "093309.782500", "093311.782500", "093313.782500", "093315.782500", "093317.782500", "093319.782500", "093321.782500", "093323.782500", "093325.782500", "093327.782500", "093329.782500", "093331.782500", "093333.782500", "093335.782500", "093337.782500", "093339.782500", "093341.782500", "093343.782500", "093345.782500", "093347.782500", "093349.782500", "093351.782500", "093353.782500", "093355.782500", "093357.782500", "093359.782500", "093401.782500", "093403.782500", "093405.782500", "093407.782500", "093409.782500", "093411.782500", "093413.782500", "093415.782500", "093417.782500", "093419.782500", "093421.782500", "093423.782500", "093425.782500", "093427.782500", "093429.782500", "093431.782500", "093433.782500", "093435.782500", "093437.782500", "093439.782500", "093441.782500", "093443.782500", "093445.782500", "093447.782500", "093449.782500", "093451.782500", "093453.782500", "093455.782500", "093457.782500", "093459.782500", "093501.782500", "093503.782500", "093505.782500", "093507.782500", "093509.782500", "093511.782500", "093513.782500", "093515.782500", "093517.782500", "093519.782500", "093521.782500", "093523.782500", "093525.782500", "093527.782500", "093529.782500", "093531.782500", "093533.782500", "093535.782500", "093537.782500", "093539.782500", "093541.782500", "093543.782500", "093545.782500", "093547.782500", "093549.782500", "093551.782500", "093553.782500", "093555.782500", "093557.782500", "093559.782500", "093601.782500", "093603.782500", "093605.782500", "093607.782500", "093609.782500", "093611.782500", "093613.782500", "093615.782500", "093617.782500", "093619.782500", "093621.782500", "093623.782500", "093625.782500", "093627.782500", "093629.782500", "093631.782500", "093633.782500", "093635.782500", "093637.782500", "093639.782500", "093641.782500", "093643.782500", "093645.782500", "093647.782500", "093649.782500", "093651.782500", "093653.782500", "093655.782500", "093657.782500", "093659.782500", "093701.782500", "093703.782500", "093705.782500", "093707.782500", "093709.782500", "093711.782500", "093713.782500", "093715.782500", "093717.785000", "093719.785000", "093721.785000", "093723.785000", "093725.785000", "093727.785000", "093729.785000", "093731.785000", "093733.785000", "093735.785000", "093737.785000", "093739.785000", "093741.785000", "093743.785000", "093745.785000", "093747.785000", "093749.785000", "093751.785000", "093753.785000", "093755.785000", "093757.785000", "093759.785000", "093801.785000", "093803.785000", "093805.785000", "093807.785000", "093809.785000", "093811.785000", "093813.785000", "093815.785000", "093817.785000", "093819.785000", "093821.785000", "093823.785000", "093825.785000", "093827.785000", "093829.785000", "093831.785000", "093833.785000", "093835.785000", "093837.785000", "093839.785000", "093841.785000", "093843.785000", "093845.785000", "093847.785000", "093849.785000", "093851.785000", "093853.785000", "093855.785000", "093857.785000", "093859.785000", "093901.785000", "093903.785000", "093905.785000", "093907.785000", "093909.785000", "093911.785000", "093913.785000", "093915.785000", "093917.785000", "093919.785000", "093921.785000", "093923.785000", "093925.785000", "093927.785000", "093929.785000", "093931.785000", "093933.785000", "093935.785000", "093937.785000", "093939.785000", "093941.785000", "093943.785000", "093945.785000", "093947.785000", "093949.785000", "093951.785000", "093953.785000", "093955.785000", "093957.785000", "093959.785000", "094001.785000", "094003.785000", "094005.785000", "094007.785000", "094009.785000", "094011.785000", "094013.785000", "094015.785000", "094017.785000", "094019.785000", "094021.785000", "094023.785000", "094025.785000", "094027.785000", "094029.785000", "094031.785000", "094033.785000", "094035.785000", "094037.785000", "094039.785000"],
      "ContentTime": ["093114.936000", "093115.930000", "093115.935000", "093116.930000", "093116.934000", "093117.930000", "093118.931000", "093120.430000", "093122.430000", "093124.430000", "093126.430000", "093128.430000", "093130.430000", "093132.430000", "093134.431000", "093136.431000", "093138.431000", "093140.429000", "093142.429000", "093144.430000", "093146.430000", "093148.429000", "093150.430000", "093152.431000", "093154.431000", "093156.431000", "093158.430000", "093200.430000", "093202.430000", "093204.430000", "093206.430000", "093208.431000", "093210.431000", "093212.431000", "093214.430000", "093216.430000", "093218.430000", "093220.431000", "093222.429000", "093224.430000", "093226.431000", "093228.431000", "093230.431000", "093232.430000", "093234.430000", "093236.430000", "093238.430000", "093240.430000", "093242.428000", "093244.430000", "093246.431000", "093248.431000", "093250.430000", "093252.430000", "093254.430000", "093256.430000", "093258.430000", "093300.431000", "093302.431000", "093304.431000", "093306.431000", "093308.430000", "093310.430000", "093312.430000", "093314.430000", "093316.430000", "093318.431000", "093320.431000", "093322.431000", "093324.430000", "093326.430000", "093328.430000", "093330.430000", "093332.430000", "093334.430000", "093336.431000", "093338.429000", "093340.431000", "093342.430000", "093344.430000", "093346.430000", "093348.430000", "093350.430000", "093352.430000", "093354.431000", "093356.431000", "093358.431000", "093400.430000", "093402.430000", "093404.430000", "093406.430000", "093408.430000", "093410.430000", "093412.431000", "093414.431000", "093416.431000", "093418.430000", "093420.430000", "093422.430000", "093424.430000", "093426.430000", "093428.431000", "093430.431000", "093432.430000", "093434.430000", "093436.430000", "093438.430000", "093440.430000", "093442.430000", "093444.430000", "093446.444000", "093448.431000", "093450.430000", "093452.430000", "093454.430000", "093456.431000", "093458.430000", "093500.430000", "093502.430000", "093504.431000", "093506.431000", "093508.431000", "093510.430000", "093512.430000", "093514.430000", "093516.430000", "093518.430000", "093520.431000", "093522.431000", "093524.431000", "093526.431000", "093528.430000", "093530.430000", "093532.430000", "093534.431000", "093536.430000", "093538.431000", "093540.430000", "093542.431000", "093544.430000", "093546.430000", "093548.430000", "093550.430000", "093552.430000", "093554.430000", "093556.430000", "093558.431000", "093600.431000", "093602.430000", "093604.430000", "093606.430000", "093608.430000", "093610.430000", "093612.430000", "093614.431000", "093616.431000", "093618.431000", "093620.430000", "093622.431000", "093624.430000", "093626.430000", "093628.430000", "093630.431000", "093632.431000", "093634.431000", "093636.431000", "093638.430000", "093640.430000", "093642.430000", "093644.430000", "093646.430000", "093648.431000", "093650.431000", "093652.431000", "093654.430000", "093656.430000", "093658.430000", "093700.430000", "093702.430000", "093704.430000", "093706.431000", "093708.432000", "093710.430000", "093712.430000", "093714.430000", "093716.430000", "093718.430000", "093720.430000", "093722.430000", "093724.431000", "093726.431000", "093728.432000", "093730.430000", "093732.429000", "093734.430000", "093736.430000", "093738.430000", "093740.431000", "093742.431000", "093744.431000", "093746.431000", "093748.430000", "093750.431000", "093752.431000", "093754.430000", "093756.430000", "093758.431000", "093800.431000", "093802.431000", "093804.431000", "093806.430000", "093808.430000", "093810.430000", "093812.428000", "093814.430000", "093816.431000", "093818.431000", "093820.431000", "093822.430000", "093824.430000", "093826.430000", "093828.430000", "093830.430000", "093832.430000", "093834.431000", "093836.431000", "093838.431000", "093840.430000", "093842.430000", "093844.430000", "093846.430000", "093848.430000", "093850.431000", "093852.431000", "093854.431000", "093856.430000", "093858.430000", "093900.430000", "093902.430000", "093904.430000", "093906.430000", "093908.431000", "093910.432000", "093912.431000", "093914.430000", "093916.430000", "093918.430000", "093920.430000", "093922.430000", "093924.430000", "093926.431000", "093928.431000", "093930.432000", "093932.430000", "093934.431000", "093936.431000", "093938.430000", "093940.430000", "093942.430000", "093944.429000", "093946.431000", "093948.431000", "093950.430000", "093952.430000", "093954.430000", "093956.430000", "093958.428000", "094000.431000", "094002.431000", "094004.431000", "094006.430000", "094008.430000", "094010.430000", "094012.430000", "094014.430000", "094016.430000", "094018.431000", "094020.432000", "094022.431000", "094024.430000", "094026.430000", "094028.430000", "094030.430000", "094032.430000", "094034.430000", "094036.433000", "094038.442000", "094040.431000", "094042.107000"],
      "InstanceCreationTime": ["093114.936000", "093115.930000", "093115.935000", "093116.930000", "093116.934000", "093117.930000", "093118.931000", "093120.430000", "093122.430000", "093124.430000", "093126.430000", "093128.430000", "093130.430000", "093132.430000", "093134.431000", "093136.431000", "093138.431000", "093140.429000", "093142.429000", "093144.430000", "093146.430000", "093148.429000", "093150.430000", "093152.431000", "093154.431000", "093156.431000", "093158.430000", "093200.430000", "093202.430000", "093204.430000", "093206.430000", "093208.431000", "093210.431000", "093212.431000", "093214.430000", "093216.430000", "093218.430000", "093220.431000", "093222.429000", "093224.430000", "093226.431000", "093228.431000", "093230.431000", "093232.430000", "093234.430000", "093236.430000", "093238.430000", "093240.430000", "093242.428000", "093244.430000", "093246.431000", "093248.431000", "093250.430000", "093252.430000", "093254.430000", "093256.430000", "093258.430000", "093300.431000", "093302.431000", "093304.431000", "093306.431000", "093308.430000", "093310.430000", "093312.430000", "093314.430000", "093316.430000", "093318.431000", "093320.431000", "093322.431000", "093324.430000", "093326.430000", "093328.430000", "093330.430000", "093332.430000", "093334.430000", "093336.431000", "093338.429000", "093340.431000", "093342.430000", "093344.430000", "093346.430000", "093348.430000", "093350.430000", "093352.430000", "093354.431000", "093356.431000", "093358.431000", "093400.430000", "093402.430000", "093404.430000", "093406.430000", "093408.430000", "093410.430000", "093412.431000", "093414.431000", "093416.431000", "093418.430000", "093420.430000", "093422.430000", "093424.430000", "093426.430000", "093428.431000", "093430.431000", "093432.430000", "093434.430000", "093436.430000", "093438.430000", "093440.430000", "093442.430000", "093444.430000", "093446.444000", "093448.431000", "093450.430000", "093452.430000", "093454.430000", "093456.431000", "093458.430000", "093500.430000", "093502.430000", "093504.431000", "093506.431000", "093508.431000", "093510.430000", "093512.430000", "093514.430000", "093516.430000", "093518.430000", "093520.431000", "093522.431000", "093524.431000", "093526.431000", "093528.430000", "093530.430000", "093532.430000", "093534.431000", "093536.430000", "093538.431000", "093540.430000", "093542.431000", "093544.430000", "093546.430000", "093548.430000", "093550.430000", "093552.430000", "093554.430000", "093556.430000", "093558.431000", "093600.431000", "093602.430000", "093604.430000", "093606.430000", "093608.430000", "093610.430000", "093612.430000", "093614.431000", "093616.431000", "093618.431000", "093620.430000", "093622.431000", "093624.430000", "093626.430000", "093628.430000", "093630.431000", "093632.431000", "093634.431000", "093636.431000", "093638.430000", "093640.430000", "093642.430000", "093644.430000", "093646.430000", "093648.431000", "093650.431000", "093652.431000", "093654.430000", "093656.430000", "093658.430000", "093700.430000", "093702.430000", "093704.430000", "093706.431000", "093708.432000", "093710.430000", "093712.430000", "093714.430000", "093716.430000", "093718.430000", "093720.430000", "093722.430000", "093724.431000", "093726.431000", "093728.432000", "093730.430000", "093732.429000", "093734.430000", "093736.430000", "093738.430000", "093740.431000", "093742.431000", "093744.431000", "093746.431000", "093748.430000", "093750.431000", "093752.431000", "093754.430000", "093756.430000", "093758.431000", "093800.431000", "093802.431000", "093804.431000", "093806.430000", "093808.430000", "093810.430000", "093812.428000", "093814.430000", "093816.431000", "093818.431000", "093820.431000", "093822.430000", "093824.430000", "093826.430000", "093828.430000", "093830.430000", "093832.430000", "093834.431000", "093836.431000", "093838.431000", "093840.430000", "093842.430000", "093844.430000", "093846.430000", "093848.430000", "093850.431000", "093852.431000", "093854.431000", "093856.430000", "093858.430000", "093900.430000", "093902.430000", "093904.430000", "093906.430000", "093908.431000", "093910.432000", "093912.431000", "093914.430000", "093916.430000", "093918.430000", "093920.430000", "093922.430000", "093924.430000", "093926.431000", "093928.431000", "093930.432000", "093932.430000", "093934.431000", "093936.431000", "093938.430000", "093940.430000", "093942.430000", "093944.429000", "093946.431000", "093948.431000", "093950.430000", "093952.430000", "093954.430000", "093956.430000", "093958.428000", "094000.431000", "094002.431000", "094004.431000", "094006.430000", "094008.430000", "094010.430000", "094012.430000", "094014.430000", "094016.430000", "094018.431000", "094020.432000", "094022.431000", "094024.430000", "094026.430000", "094028.430000", "094030.430000", "094032.430000", "094034.430000", "094036.433000", "094038.442000", "094040.431000", "094042.107000"],
      "InstanceNumber": [1, 2, 3, 4, 5, 6, 7, 8, 9, 10, 11, 12, 13, 14, 15, 16, 17, 18, 19, 20, 21, 22, 23, 24, 25, 26, 27, 28, 29, 30, 31, 32, 33, 34, 35, 36, 37, 38, 39, 40, 41, 42, 43, 44, 45, 46, 47, 48, 49, 50, 51, 52, 53, 54, 55, 56, 57, 58, 59, 60, 61, 62, 63, 64, 65, 66, 67, 68, 69, 70, 71, 72, 73, 74, 75, 76, 77, 78, 79, 80, 81, 82, 83, 84, 85, 86, 87, 88, 89, 90, 91, 92, 93, 94, 95, 96, 97, 98, 99, 100, 101, 102, 103, 104, 105, 106, 107, 108, 109, 110, 111, 112, 113, 114, 115, 116, 117, 118, 119, 120, 121, 122, 123, 124, 125, 126, 127, 128, 129, 130, 131, 132, 133, 134, 135, 136, 137, 138, 139, 140, 141, 142, 143, 144, 145, 146, 147, 148, 149, 150, 151, 152, 153, 154, 155, 156, 157, 158, 159, 160, 161, 162, 163, 164, 165, 166, 167, 168, 169, 170, 171, 172, 173, 174, 175, 176, 177, 178, 179, 180, 181, 182, 183, 184, 185, 186, 187, 188, 189, 190, 191, 192, 193, 194, 195, 196, 197, 198, 199, 200, 201, 202, 203, 204, 205, 206, 207, 208, 209, 210, 211, 212, 213, 214, 215, 216, 217, 218, 219, 220, 221, 222, 223, 224, 225, 226, 227, 228, 229, 230, 231, 232, 233, 234, 235, 236, 237, 238, 239, 240, 241, 242, 243, 244, 245, 246, 247, 248, 249, 250, 251, 252, 253, 254, 255, 256, 257, 258, 259, 260, 261, 262, 263, 264, 265, 266, 267, 268, 269, 270, 271, 272, 273, 274, 275, 276, 277, 278, 279, 280, 281, 282, 283, 284, 285, 286, 287, 288, 289],
      "WindowCenter": [17336.0, 17319.0, 17327.0, 17309.0, 17311.0, 17315.0, 17325.0, 17295.0, 17300.0, 17279.0, 17293.0, 17301.0, 17302.0, 17307.0, 17285.0, 17299.0, 17293.0, 17314.0, 17312.0, 17315.0, 17304.0, 17276.0, 17286.0, 17277.0, 17308.0, 17306.0, 17307.0, 17299.0, 17297.0, 17313.0, 17315.0, 17287.0, 17289.0, 17294.0, 17304.0, 17304.0, 17275.0, 17276.0, 17268.0, 17285.0, 17257.0, 17290.0, 17307.0, 17315.0, 17305.0, 17311.0, 17302.0, 17313.0, 17309.0, 17295.0, 17279.0, 17281.0, 17285.0, 17289.0, 17300.0, 17293.0, 17282.0, 17278.0, 17299.0, 17312.0, 17317.0, 17326.0, 17294.0, 17296.0, 17324.0, 17320.0, 17314.0, 17311.0, 17319.0, 17310.0, 17314.0, 17335.0, 17318.0, 17322.0, 17300.0, 17300.0, 17305.0, 17303.0, 17311.0, 17305.0, 17312.0, 17289.0, 17296.0, 17316.0, 17304.0, 17307.0, 17305.0, 17303.0, 17296.0, 17319.0, 17323.0, 17300.0, 17289.0, 17273.0, 17286.0, 17310.0, 17322.0, 17291.0, 17290.0, 17306.0, 17297.0, 17300.0, 17306.0, 17289.0, 17283.0, 17284.0, 17289.0, 17292.0, 17301.0, 17278.0, 17303.0, 17287.0, 17304.0, 17316.0, 17307.0, 17311.0, 17307.0, 17296.0, 17308.0, 17312.0, 17309.0, 17296.0, 17286.0, 17305.0, 17297.0, 17324.0, 17310.0, 17295.0, 17291.0, 17285.0, 17287.0, 17318.0, 17334.0, 17316.0, 17305.0, 17297.0, 17307.0, 17334.0, 17337.0, 17311.0, 17307.0, 17289.0, 17294.0, 17325.0, 17311.0, 17297.0, 17287.0, 17264.0, 17276.0, 17293.0, 17311.0, 17294.0, 17279.0, 17289.0, 17275.0, 17295.0, 17325.0, 17293.0, 17290.0, 17299.0, 17304.0, 17277.0, 17275.0, 17259.0, 17277.0, 17282.0, 17298.0, 17315.0, 17313.0, 17306.0, 17282.0, 17285.0, 17307.0, 17325.0, 17305.0, 17305.0, 17297.0, 17296.0, 17302.0, 17302.0, 17303.0, 17312.0, 17286.0, 17299.0, 17300.0, 17318.0, 17316.0, 17308.0, 17291.0, 17271.0, 17279.0, 17294.0, 17288.0, 17281.0, 17269.0, 17293.0, 17283.0, 17334.0, 17357.0, 17328.0, 17298.0, 17297.0, 17288.0, 17323.0, 17325.0, 17329.0, 17328.0, 17320.0, 17307.0, 17294.0, 17309.0, 17299.0, 17297.0, 17288.0, 17309.0, 17319.0, 17329.0, 17307.0, 17322.0, 17337.0, 17323.0, 17305.0, 17325.0, 17307.0, 17292.0, 17295.0, 17286.0, 17294.0, 17302.0, 17312.0, 17297.0, 17299.0, 17299.0, 17315.0, 17319.0, 17290.0, 17284.0, 17288.0, 17301.0, 17313.0, 17304.0, 17283.0, 17272.0, 17302.0, 17318.0, 17305.0, 17316.0, 17293.0, 17304.0, 17305.0, 17298.0, 17313.0, 17299.0, 17298.0, 17299.0, 17282.0, 17282.0, 17297.0, 17323.0, 17313.0, 17338.0, 17318.0, 17298.0, 17305.0, 17281.0, 17275.0, 17216.0, 17265.0, 17270.0, 17325.0, 17304.0, 17277.0, 17235.0, 17231.0, 17234.0, 17255.0, 17265.0, 17253.0, 17261.0, 17258.0, 17277.0, 17291.0, 17310.0, 17306.0, 17305.0, 17285.0, 17271.0, 17269.0, 17281.0],
      "WindowWidth": [48457.0, 48418.0, 48422.0, 48397.0, 48387.0, 48440.0, 48432.0, 48362.0, 48314.0, 48286.0, 48271.0, 48339.0, 48378.0, 48342.0, 48315.0, 48310.0, 48297.0, 48337.0, 48374.0, 48385.0, 48338.0, 48283.0, 48240.0, 48312.0, 48384.0, 48445.0, 48446.0, 48401.0, 48363.0, 48411.0, 48425.0, 48419.0, 48383.0, 48374.0, 48381.0, 48367.0, 48321.0, 48258.0, 48243.0, 48279.0, 48175.0, 48320.0, 48371.0, 48401.0, 48358.0, 48336.0, 48316.0, 48337.0, 48346.0, 48310.0, 48286.0, 48263.0, 48277.0, 48320.0, 48326.0, 48267.0, 48225.0, 48249.0, 48301.0, 48435.0, 48438.0, 48378.0, 48332.0, 48322.0, 48330.0, 48377.0, 48385.0, 48344.0, 48326.0, 48344.0, 48351.0, 48414.0, 48439.0, 48378.0, 48349.0, 48325.0, 48317.0, 48354.0, 48358.0, 48327.0, 48297.0, 48306.0, 48312.0, 48313.0, 48330.0, 48332.0, 48393.0, 48391.0, 48348.0, 48341.0, 48392.0, 48375.0, 48317.0, 48283.0, 48291.0, 48320.0, 48342.0, 48347.0, 48347.0, 48318.0, 48299.0, 48313.0, 48305.0, 48305.0, 48287.0, 48261.0, 48202.0, 48205.0, 48249.0, 48259.0, 48262.0, 48277.0, 48289.0, 48322.0, 48329.0, 48318.0, 48316.0, 48334.0, 48316.0, 48331.0, 48316.0, 48309.0, 48327.0, 48327.0, 48286.0, 48319.0, 48420.0, 48359.0, 48292.0, 48263.0, 48277.0, 48314.0, 48361.0, 48348.0, 48329.0, 48297.0, 48292.0, 48310.0, 48338.0, 48345.0, 48304.0, 48281.0, 48247.0, 48330.0, 48383.0, 48332.0, 48238.0, 48185.0, 48182.0, 48231.0, 48242.0, 48242.0, 48207.0, 48190.0, 48131.0, 48182.0, 48201.0, 48217.0, 48219.0, 48223.0, 48175.0, 48131.0, 48092.0, 48117.0, 48156.0, 48184.0, 48183.0, 48247.0, 48283.0, 48253.0, 48273.0, 48250.0, 48227.0, 48228.0, 48277.0, 48288.0, 48296.0, 48282.0, 48249.0, 48301.0, 48352.0, 48356.0, 48326.0, 48284.0, 48251.0, 48350.0, 48373.0, 48303.0, 48229.0, 48165.0, 48171.0, 48207.0, 48253.0, 48221.0, 48202.0, 48194.0, 48167.0, 48387.0, 48339.0, 48282.0, 48259.0, 48146.0, 48115.0, 48176.0, 48217.0, 48220.0, 48245.0, 48262.0, 48253.0, 48270.0, 48254.0, 48284.0, 48271.0, 48251.0, 48202.0, 48236.0, 48281.0, 48293.0, 48290.0, 48261.0, 48253.0, 48306.0, 48366.0, 48303.0, 48267.0, 48206.0, 48214.0, 48294.0, 48301.0, 48282.0, 48272.0, 48263.0, 48274.0, 48259.0, 48234.0, 48176.0, 48137.0, 48156.0, 48248.0, 48219.0, 48187.0, 48136.0, 48180.0, 48213.0, 48249.0, 48253.0, 48209.0, 48207.0, 48214.0, 48217.0, 48223.0, 48235.0, 48286.0, 48247.0, 48210.0, 48184.0, 48160.0, 48208.0, 48265.0, 48286.0, 48277.0, 48263.0, 48210.0, 48163.0, 48146.0, 48129.0, 47911.0, 48037.0, 48084.0, 48341.0, 48237.0, 48039.0, 47835.0, 47756.0, 47787.0, 47865.0, 47909.0, 47953.0, 47983.0, 48008.0, 48032.0, 48094.0, 48170.0, 48229.0, 48213.0, 48162.0, 48127.0, 48115.0, 48111.0]
    },
    "slices": {}
  }
}