{
  "AcquisitionMatrixPE": 116,
  "AcquisitionNumber": 1,
  "AcquisitionTime": "09:41:52.977500",
  "BandwidthPerPixelPhaseEncode": 18.539,
  "BaseResolution": 116,
  "BodyPartExamined": "HEAD",
  "ConsistencyInfo": "N4_VD13D_LATEST_20130810",
  "ConversionSoftware": "dcm2niix",
  "ConversionSoftwareVersion": "v1.0.20190410  (JP2:OpenJPEG) (JP-LS:CharLS) GCC5.5.0",
  "DerivedVendorReportedEchoSpacing": 0.000930006,
  "DeviceSerialNumber": "66014",
  "DwellTime": 3e-06,
  "EchoTime": 0.03,
  "EchoTrainLength": 50,
  "EffectiveEchoSpacing": 0.000465003,
  "FlipAngle": 81,
  "ImageComments": "Unaliased_MB3_PE4",
  "ImageOrientationPatientDICOM": [0.999945, 0.0104833, 0.000490245, -0.0104718, 0.999755, -0.0194944],
  "ImageType": [
    "ORIGINAL",
    "PRIMARY",
    "M",
    "MB",
    "ND",
    "MOSAIC"
],
  "ImagingFrequency": 123.261,
  "InPlanePhaseEncodingDirectionDICOM": "COL",
  "InstitutionAddress": "Yiheyuan_Road_5_Beijing_Haidian_CN_100871",
  "InstitutionName": "Peking_Univeristy",
  "InstitutionalDepartmentName": "Department",
  "MRAcquisitionType": "2D",
  "MagneticFieldStrength": 3,
  "Manufacturer": "Siemens",
  "ManufacturersModelName": "Prisma",
  "Modality": "MR",
  "MultibandAccelerationFactor": 3,
  "ParallelReductionFactorInPlane": 2,
  "PartialFourier": 0.875,
  "PatientPosition": "HFS",
  "PercentPhaseFOV": 100,
  "PhaseEncodingDirection": "j-",
  "PhaseEncodingSteps": 101,
  "PhaseResolution": 1,
  "PixelBandwidth": 1435,
  "ProcedureStepDescription": "Research_Projects_64CH",
  "ProtocolName": "mbep2d_bold_MB3_loca1",
  "PulseSequenceDetails": "%CustomerSeq%_cmrr_mbep2d_bold",
  "ReceiveCoilActiveElements": "HC1-6",
  "ReceiveCoilName": "HeadNeck_64",
  "ReconMatrixPE": 116,
  "RefLinesPE": 44,
  "RepetitionTime": 2,
  "SAR": 0.0493648,
  "ScanOptions": "PFP_FS",
  "ScanningSequence": "EP",
  "SequenceName": "epfid2d1_116",
  "SequenceVariant": "SK_SS",
  "SeriesDescription": "mbep2d_bold_MB3_loca1",
  "SeriesNumber": 9,
  "ShimSetting": [-3450, -2097, -1978, 334, -21, -123, -39, 29],
  "SliceThickness": 1.9,
  "SliceTiming": [0, 0.9075, 1.815, 0.7425, 1.65, 0.5775, 1.485, 0.4125, 1.32, 0.2475, 1.155, 0.0825, 0.99, 1.8975, 0.825, 1.7325, 0.66, 1.5675, 0.495, 1.4025, 0.33, 1.2375, 0.165, 1.0725, 0, 0.9075, 1.815, 0.7425, 1.65, 0.5775, 1.485, 0.4125, 1.32, 0.2475, 1.155, 0.0825, 0.99, 1.8975, 0.825, 1.7325, 0.66, 1.5675, 0.495, 1.4025, 0.33, 1.2375, 0.165, 1.0725, 0, 0.9075, 1.815, 0.7425, 1.65, 0.5775, 1.485, 0.4125, 1.32, 0.2475, 1.155, 0.0825, 0.99, 1.8975, 0.825, 1.7325, 0.66, 1.5675, 0.495, 1.4025, 0.33, 1.2375, 0.165, 1.0725],
  "SoftwareVersions": "syngo_MR_D13D",
  "SpacingBetweenSlices": 1.9,
  "StationName": "AWP66014",
  "TaskName": "localizer",
  "TotalReadoutTime": 0.0534753,
  "TxRefAmp": 225.868,
  "WipMemBlock": "53d87e69-e5b2-461e-80c2-be864f164ebc||Sequence: vd13d/master r/0735857; Nov 19 2014 09:21:40 by eja",
  "dcmmeta_affine": [
    [-1.8964473009109497, -0.01986030489206314, 0.001319534843787551, 110.60250091552734],
    [-0.0198822058737278, 1.8960872888565063, -0.037027642130851746, -98.0079345703125],
    [0.0009297753567807376, 0.03697221353650093, 1.8996386528015137, -63.26181411743164],
    [0.0, 0.0, 0.0, 1.0]
],
  "dcmmeta_reorient_transform": [
    [0.0, -1.0, 0.0, 115.0],
    [1.0, 0.0, 0.0, 0.0],
    [0.0, 0.0, 1.0, 0.0],
    [0.0, 0.0, 0.0, 1.0]
],
  "dcmmeta_shape": [116, 116, 72, 164],
  "dcmmeta_slice_dim": 2,
  "dcmmeta_version": 0.6,
  "global": {
    "const": {
      "AcquisitionMatrix": [116, 0, 0, 116],
      "AngioFlag": "N",
      "BitsAllocated": 16,
      "BitsStored": 16,
      "BodyPartExamined": "HEAD",
      "Columns": 1044,
      "EchoNumbers": 1,
      "EchoTime": 30.0,
      "EchoTrainLength": 50,
      "FlipAngle": 81.0,
      "HighBit": 15,
      "ImageOrientationPatient": [0.99994492805795, 0.0104833444484, 0.00049024519559, -0.0104717969774, 0.99975512416266, -0.0194944396833],
      "ImagePositionPatient": [-979.05492564986, -1009.0519567592, -42.286318912999],
      "ImageType": [
        "ORIGINAL",
        "PRIMARY",
        "M",
        "MB",
        "ND",
        "MOSAIC"
],
      "ImagedNucleus": "1H",
      "ImagingFrequency": 123.260559,
      "InPlanePhaseEncodingDirection": "COL",
      "LargestImagePixelValue": 65535,
      "MRAcquisitionType": "2D",
      "MagneticFieldStrength": 3.0,
      "Manufacturer": "SIEMENS",
      "ManufacturerModelName": "Prisma",
      "Modality": "MR",
      "NumberOfAverages": 1.0,
      "NumberOfPhaseEncodingSteps": 101,
      "PercentPhaseFieldOfView": 100.0,
      "PercentSampling": 100.0,
      "PerformedProcedureStepStartTime": "085441.746000",
      "PhotometricInterpretation": "MONOCHROME2",
      "PixelBandwidth": 1435.0,
      "PixelRepresentation": 0,
      "PixelSpacing": [1.8965517282486, 1.8965517282486],
      "ProtocolName": "mbep2d_bold_MB3_loca1",
      "RepetitionTime": 2000.0,
      "Rows": 1044,
      "SAR": 0.04936479949726,
      "SamplesPerPixel": 1,
      "ScanOptions": [
        "PFP",
        "FS"
],
      "ScanningSequence": "EP",
      "SequenceName": "epfid2d1_116",
      "SequenceVariant": [
        "SK",
        "SS"
],
      "SeriesDescription": "mbep2d_bold_MB3_loca1",
      "SeriesNumber": 9,
      "SeriesTime": "094204.642000",
      "SliceLocation": -61.262971055418,
      "SliceThickness": 1.8999999761581,
      "SmallestImagePixelValue": 0,
      "SoftwareVersions": "syngo MR D13D",
      "SpacingBetweenSlices": 1.8999999402839,
      "SpecificCharacterSet": "ISO_IR 100",
      "StudyID": "1",
      "StudyTime": "085441.690000",
      "TimeOfLastCalibration": ["123723.000000", "123723.000000"],
      "TransmitCoilName": "Body",
      "VariableFlipAngleFlag": "N",
      "WindowCenterWidthExplanation": "Algo1",
      "dBdt": 0.0},
    "slices": {}
  },
  "time": {
    "samples": {
      "AcquisitionNumber": [1, 2, 3, 4, 5, 6, 7, 8, 9, 10, 11, 12, 13, 14, 15, 16, 17, 18, 19, 20, 21, 22, 23, 24, 25, 26, 27, 28, 29, 30, 31, 32, 33, 34, 35, 36, 37, 38, 39, 40, 41, 42, 43, 44, 45, 46, 47, 48, 49, 50, 51, 52, 53, 54, 55, 56, 57, 58, 59, 60, 61, 62, 63, 64, 65, 66, 67, 68, 69, 70, 71, 72, 73, 74, 75, 76, 77, 78, 79, 80, 81, 82, 83, 84, 85, 86, 87, 88, 89, 90, 91, 92, 93, 94, 95, 96, 97, 98, 99, 100, 101, 102, 103, 104, 105, 106, 107, 108, 109, 110, 111, 112, 113, 114, 115, 116, 117, 118, 119, 120, 121, 122, 123, 124, 125, 126, 127, 128, 129, 130, 131, 132, 133, 134, 135, 136, 137, 138, 139, 140, 141, 142, 143, 144, 145, 146, 147, 148, 149, 150, 151, 152, 153, 154, 155, 156, 157, 158, 159, 160, 161, 162, 163, 164],
      "AcquisitionTime": ["094152.977500", "094154.977500", "094156.977500", "094158.977500", "094200.977500", "094202.977500", "094204.977500", "094206.977500", "094208.977500", "094210.977500", "094212.977500", "094214.977500", "094216.977500", "094218.977500", "094220.977500", "094222.977500", "094224.977500", "094226.977500", "094228.977500", "094230.977500", "094232.977500", "094234.977500", "094236.977500", "094238.977500", "094240.977500", "094242.977500", "094244.977500", "094246.977500", "094248.977500", "094250.977500", "094252.977500", "094254.977500", "094256.977500", "094258.977500", "094300.977500", "094302.977500", "094304.977500", "094306.977500", "094308.977500", "094310.977500", "094312.977500", "094314.977500", "094316.977500", "094318.977500", "094320.977500", "094322.977500", "094324.977500", "094326.977500", "094328.977500", "094330.977500", "094332.977500", "094334.977500", "094336.977500", "094338.977500", "094340.977500", "094342.977500", "094344.977500", "094346.977500", "094348.977500", "094350.977500", "094352.977500", "094354.977500", "094356.977500", "094358.977500", "094400.977500", "094402.977500", "094404.977500", "094406.977500", "094408.977500", "094410.977500", "094412.977500", "094414.977500", "094416.977500", "094418.977500", "094420.977500", "094422.977500", "094424.977500", "094426.977500", "094428.977500", "094430.977500", "094432.977500", "094434.977500", "094436.977500", "094438.977500", "094440.977500", "094442.977500", "094444.977500", "094446.977500", "094448.977500", "094450.977500", "094452.977500", "094454.977500", "094456.977500", "094458.977500", "094500.977500", "094502.977500", "094504.977500", "094506.977500", "094508.977500", "094510.977500", "094512.977500", "094514.977500", "094516.977500", "094518.977500", "094520.977500", "094522.977500", "094524.977500", "094526.977500", "094528.977500", "094530.977500", "094532.977500", "094534.977500", "094536.977500", "094538.977500", "094540.977500", "094542.977500", "094544.977500", "094546.977500", "094548.977500", "094550.977500", "094552.977500", "094554.977500", "094556.977500", "094558.977500", "094600.977500", "094602.977500", "094604.977500", "094606.977500", "094608.977500", "094610.977500", "094612.977500", "094614.977500", "094616.977500", "094618.977500", "094620.977500", "094622.977500", "094624.977500", "094626.977500", "094628.977500", "094630.977500", "094632.977500", "094634.977500", "094636.977500", "094638.977500", "094640.977500", "094642.977500", "094644.980000", "094646.980000", "094648.980000", "094650.980000", "094652.980000", "094654.980000", "094656.980000", "094658.980000", "094700.980000", "094702.980000", "094704.980000", "094706.980000", "094708.980000", "094710.980000", "094712.980000", "094714.980000", "094716.980000", "094718.980000"],
      "ContentTime": ["094204.650000", "094205.641000", "094205.645000", "094206.641000", "094206.646000", "094207.642000", "094207.646000", "094209.641000", "094211.642000", "094213.642000", "094215.640000", "094217.640000", "094219.641000", "094221.641000", "094223.641000", "094225.642000", "094227.641000", "094229.641000", "094231.640000", "094233.641000", "094235.641000", "094237.641000", "094239.642000", "094241.642000", "094243.642000", "094245.642000", "094247.642000", "094249.642000", "094251.641000", "094253.641000", "094255.642000", "094257.642000", "094259.642000", "094301.642000", "094303.641000", "094305.642000", "094307.641000", "094309.641000", "094311.640000", "094313.642000", "094315.642000", "094317.642000", "094319.642000", "094321.642000", "094323.642000", "094325.641000", "094327.640000", "094329.640000", "094331.641000", "094333.642000", "094335.642000", "094337.642000", "094339.642000", "094341.642000", "094343.641000", "094345.640000", "094347.642000", "094349.642000", "094351.641000", "094353.642000", "094355.642000", "094357.642000", "094359.642000", "094401.641000", "094403.640000", "094405.642000", "094407.642000", "094409.642000", "094411.642000", "094413.642000", "094415.641000", "094417.642000", "094419.640000", "094421.641000", "094423.642000", "094425.642000", "094427.642000", "094429.642000", "094431.641000", "094433.642000", "094435.640000", "094437.640000", "094439.640000", "094441.642000", "094443.642000", "094445.641000", "094447.642000", "094449.641000", "094451.642000", "094453.641000", "094455.641000", "094457.642000", "094459.641000", "094501.642000", "094503.642000", "094505.642000", "094507.642000", "094509.642000", "094511.640000", "094513.641000", "094515.642000", "094517.642000", "094519.641000", "094521.643000", "094523.642000", "094525.641000", "094527.642000", "094529.640000", "094531.641000", "094533.642000", "094535.642000", "094537.642000", "094539.642000", "094541.642000", "094543.642000", "094545.640000", "094547.641000", "094549.640000", "094551.642000", "094553.642000", "094555.642000", "094557.652000", "094559.641000", "094601.642000", "094603.641000", "094605.641000", "094607.641000", "094609.642000", "094611.642000", "094613.641000", "094615.642000", "094617.641000", "094619.642000", "094621.639000", "094623.639000", "094625.641000", "094627.642000", "094629.641000", "094631.641000", "094633.642000", "094635.640000", "094637.642000", "094639.640000", "094641.641000", "094643.642000", "094645.642000", "094647.641000", "094649.642000", "094651.641000", "094653.642000", "094655.640000", "094657.641000", "094659.641000", "094701.641000", "094703.642000", "094705.641000", "094707.641000", "094709.642000", "094711.641000", "094713.640000", "094715.641000", "094717.641000", "094719.642000", "094721.472000"],
      "InstanceCreationTime": ["094204.650000", "094205.641000", "094205.645000", "094206.641000", "094206.646000", "094207.642000", "094207.646000", "094209.641000", "094211.642000", "094213.642000", "094215.640000", "094217.640000", "094219.641000", "094221.641000", "094223.641000", "094225.642000", "094227.641000", "094229.641000", "094231.640000", "094233.641000", "094235.641000", "094237.641000", "094239.642000", "094241.642000", "094243.642000", "094245.642000", "094247.642000", "094249.642000", "094251.641000", "094253.641000", "094255.642000", "094257.642000", "094259.642000", "094301.642000", "094303.641000", "094305.642000", "094307.641000", "094309.641000", "094311.640000", "094313.642000", "094315.642000", "094317.642000", "094319.642000", "094321.642000", "094323.642000", "094325.641000", "094327.640000", "094329.640000", "094331.641000", "094333.642000", "094335.642000", "094337.642000", "094339.642000", "094341.642000", "094343.641000", "094345.640000", "094347.642000", "094349.642000", "094351.641000", "094353.642000", "094355.642000", "094357.642000", "094359.642000", "094401.641000", "094403.640000", "094405.642000", "094407.642000", "094409.642000", "094411.642000", "094413.642000", "094415.641000", "094417.642000", "094419.640000", "094421.641000", "094423.642000", "094425.642000", "094427.642000", "094429.642000", "094431.641000", "094433.642000", "094435.640000", "094437.640000", "094439.640000", "094441.642000", "094443.642000", "094445.641000", "094447.642000", "094449.641000", "094451.642000", "094453.641000", "094455.641000", "094457.642000", "094459.641000", "094501.642000", "094503.642000", "094505.642000", "094507.642000", "094509.642000", "094511.640000", "094513.641000", "094515.642000", "094517.642000", "094519.641000", "094521.643000", "094523.642000", "094525.641000", "094527.642000", "094529.640000", "094531.641000", "094533.642000", "094535.642000", "094537.642000", "094539.642000", "094541.642000", "094543.642000", "094545.640000", "094547.641000", "094549.640000", "094551.642000", "094553.642000", "094555.642000", "094557.652000", "094559.641000", "094601.642000", "094603.641000", "094605.641000", "094607.641000", "094609.642000", "094611.642000", "094613.641000", "094615.642000", "094617.641000", "094619.642000", "094621.639000", "094623.639000", "094625.641000", "094627.642000", "094629.641000", "094631.641000", "094633.642000", "094635.640000", "094637.642000", "094639.640000", "094641.641000", "094643.642000", "094645.642000", "094647.641000", "094649.642000", "094651.641000", "094653.642000", "094655.640000", "094657.641000", "094659.641000", "094701.641000", "094703.642000", "094705.641000", "094707.641000", "094709.642000", "094711.641000", "094713.640000", "094715.641000", "094717.641000", "094719.642000", "094721.472000"],
      "InstanceNumber": [1, 2, 3, 4, 5, 6, 7, 8, 9, 10, 11, 12, 13, 14, 15, 16, 17, 18, 19, 20, 21, 22, 23, 24, 25, 26, 27, 28, 29, 30, 31, 32, 33, 34, 35, 36, 37, 38, 39, 40, 41, 42, 43, 44, 45, 46, 47, 48, 49, 50, 51, 52, 53, 54, 55, 56, 57, 58, 59, 60, 61, 62, 63, 64, 65, 66, 67, 68, 69, 70, 71, 72, 73, 74, 75, 76, 77, 78, 79, 80, 81, 82, 83, 84, 85, 86, 87, 88, 89, 90, 91, 92, 93, 94, 95, 96, 97, 98, 99, 100, 101, 102, 103, 104, 105, 106, 107, 108, 109, 110, 111, 112, 113, 114, 115, 116, 117, 118, 119, 120, 121, 122, 123, 124, 125, 126, 127, 128, 129, 130, 131, 132, 133, 134, 135, 136, 137, 138, 139, 140, 141, 142, 143, 144, 145, 146, 147, 148, 149, 150, 151, 152, 153, 154, 155, 156, 157, 158, 159, 160, 161, 162, 163, 164],
      "WindowCenter": [17327.0, 17287.0, 17295.0, 17298.0, 17289.0, 17309.0, 17300.0, 17318.0, 17318.0, 17302.0, 17284.0, 17294.0, 17279.0, 17292.0, 17275.0, 17281.0, 17289.0, 17288.0, 17272.0, 17279.0, 17261.0, 17281.0, 17294.0, 17307.0, 17305.0, 17297.0, 17293.0, 17294.0, 17270.0, 17273.0, 17268.0, 17296.0, 17266.0, 17263.0, 17249.0, 17256.0, 17254.0, 17243.0, 17236.0, 17257.0, 17269.0, 17282.0, 17289.0, 17287.0, 17307.0, 17313.0, 17303.0, 17286.0, 17260.0, 17257.0, 17295.0, 17301.0, 17288.0, 17295.0, 17275.0, 17248.0, 17270.0, 17275.0, 17278.0, 17284.0, 17268.0, 17269.0, 17273.0, 17269.0, 17250.0, 17267.0, 17261.0, 17277.0, 17286.0, 17301.0, 17298.0, 17292.0, 17281.0, 17264.0, 17260.0, 17280.0, 17294.0, 17307.0, 17306.0, 17306.0, 17287.0, 17307.0, 17298.0, 17329.0, 17332.0, 17327.0, 17359.0, 17364.0, 17351.0, 17307.0, 17287.0, 17296.0, 17287.0, 17314.0, 17297.0, 17319.0, 17323.0, 17344.0, 17358.0, 17347.0, 17313.0, 17292.0, 17304.0, 17302.0, 17300.0, 17299.0, 17271.0, 17278.0, 17274.0, 17265.0, 17268.0, 17279.0, 17310.0, 17294.0, 17280.0, 17268.0, 17261.0, 17284.0, 17296.0, 17286.0, 17274.0, 17268.0, 17273.0, 17264.0, 17264.0, 17254.0, 17253.0, 17255.0, 17262.0, 17252.0, 17252.0, 17257.0, 17257.0, 17274.0, 17279.0, 17259.0, 17256.0, 17265.0, 17263.0, 17310.0, 17342.0, 17335.0, 17320.0, 17292.0, 17309.0, 17306.0, 17303.0, 17304.0, 17321.0, 17311.0, 17304.0, 17311.0, 17307.0, 17305.0, 17325.0, 17291.0, 17307.0, 17298.0, 17312.0, 17306.0, 17311.0, 17293.0, 17289.0, 17265.0],
      "WindowWidth": [48055.0, 47915.0, 47896.0, 47962.0, 48032.0, 48071.0, 48092.0, 48091.0, 48090.0, 48066.0, 48091.0, 48034.0, 48038.0, 48021.0, 48010.0, 48003.0, 48045.0, 47991.0, 47968.0, 47896.0, 47910.0, 47949.0, 47985.0, 48045.0, 48058.0, 48053.0, 48023.0, 47974.0, 47993.0, 47960.0, 47968.0, 47987.0, 47990.0, 47924.0, 47876.0, 47856.0, 47879.0, 47897.0, 47918.0, 47935.0, 47955.0, 47939.0, 47981.0, 47968.0, 47945.0, 47926.0, 48019.0, 47982.0, 47948.0, 47910.0, 47923.0, 47991.0, 47968.0, 47909.0, 47869.0, 47851.0, 47866.0, 47884.0, 47935.0, 47915.0, 47966.0, 47918.0, 47920.0, 47917.0, 47877.0, 47851.0, 47887.0, 47936.0, 47891.0, 47889.0, 47937.0, 47956.0, 47910.0, 47886.0, 47885.0, 47963.0, 48012.0, 48032.0, 48004.0, 47955.0, 47979.0, 47982.0, 48039.0, 48061.0, 48074.0, 48072.0, 48058.0, 47984.0, 47795.0, 47714.0, 47725.0, 47783.0, 47879.0, 47910.0, 47897.0, 47890.0, 47995.0, 48014.0, 48095.0, 47959.0, 47858.0, 47808.0, 47890.0, 47941.0, 47939.0, 47901.0, 47857.0, 47835.0, 47809.0, 47840.0, 47868.0, 47903.0, 47961.0, 47925.0, 47874.0, 47816.0, 47788.0, 47853.0, 47899.0, 47943.0, 47909.0, 47916.0, 47857.0, 47863.0, 47862.0, 47843.0, 47869.0, 47881.0, 47860.0, 47815.0, 47778.0, 47794.0, 47793.0, 47804.0, 47782.0, 47796.0, 47844.0, 47862.0, 47899.0, 47960.0, 47956.0, 47875.0, 47750.0, 47718.0, 47767.0, 47826.0, 47862.0, 47827.0, 47865.0, 47887.0, 47918.0, 47860.0, 47844.0, 47883.0, 47895.0, 47872.0, 47908.0, 47848.0, 47820.0, 47844.0, 47872.0, 47822.0, 47754.0, 47764.0]
    },
    "slices": {}
  }
}