{
  "AcquisitionMatrixPE": 116,
  "AcquisitionNumber": 1,
  "AcquisitionTime": "09:09:30.625000",
  "BandwidthPerPixelPhaseEncode": 18.539,
  "BaseResolution": 116,
  "BodyPartExamined": "HEAD",
  "ConsistencyInfo": "N4_VD13D_LATEST_20130810",
  "ConversionSoftware": "dcm2niix",
  "ConversionSoftwareVersion": "v1.0.20190410  (JP2:OpenJPEG) (JP-LS:CharLS) GCC5.5.0",
  "DerivedVendorReportedEchoSpacing": 0.000930006,
  "DeviceSerialNumber": "66014",
  "DwellTime": 3e-06,
  "EchoTime": 0.03,
  "EchoTrainLength": 50,
  "EffectiveEchoSpacing": 0.000465003,
  "FlipAngle": 81,
  "ImageComments": "Unaliased_MB3_PE4",
  "ImageOrientationPatientDICOM": [0.999945, 0.0104833, 0.000490245, -0.0104718, 0.999755, -0.0194944],
  "ImageType": [
    "ORIGINAL",
    "PRIMARY",
    "M",
    "MB",
    "ND",
    "MOSAIC"
],
  "ImagingFrequency": 123.261,
  "InPlanePhaseEncodingDirectionDICOM": "COL",
  "InstitutionAddress": "Yiheyuan_Road_5_Beijing_Haidian_CN_100871",
  "InstitutionName": "Peking_Univeristy",
  "InstitutionalDepartmentName": "Department",
  "MRAcquisitionType": "2D",
  "MagneticFieldStrength": 3,
  "Manufacturer": "Siemens",
  "ManufacturersModelName": "Prisma",
  "Modality": "MR",
  "MultibandAccelerationFactor": 3,
  "ParallelReductionFactorInPlane": 2,
  "PartialFourier": 0.875,
  "PatientPosition": "HFS",
  "PercentPhaseFOV": 100,
  "PhaseEncodingDirection": "j-",
  "PhaseEncodingSteps": 101,
  "PhaseResolution": 1,
  "PixelBandwidth": 1435,
  "ProcedureStepDescription": "Research_Projects_64CH",
  "ProtocolName": "mbep2d_bold_MB3_test1",
  "PulseSequenceDetails": "%CustomerSeq%_cmrr_mbep2d_bold",
  "ReceiveCoilActiveElements": "HC1-6",
  "ReceiveCoilName": "HeadNeck_64",
  "ReconMatrixPE": 116,
  "RefLinesPE": 44,
  "RepetitionTime": 2,
  "SAR": 0.0503037,
  "ScanOptions": "PFP_FS",
  "ScanningSequence": "EP",
  "SequenceName": "epfid2d1_116",
  "SequenceVariant": "SK_SS",
  "SeriesDescription": "mbep2d_bold_MB3_test1",
  "SeriesNumber": 6,
  "ShimSetting": [-3450, -2097, -1978, 334, -21, -123, -39, 29],
  "SliceThickness": 1.9,
  "SliceTiming": [0, 0.9075, 1.815, 0.7425, 1.65, 0.5775, 1.485, 0.4125, 1.32, 0.2475, 1.155, 0.0825, 0.99, 1.8975, 0.825, 1.7325, 0.66, 1.5675, 0.495, 1.4025, 0.33, 1.2375, 0.165, 1.0725, 0, 0.9075, 1.815, 0.7425, 1.65, 0.5775, 1.485, 0.4125, 1.32, 0.2475, 1.155, 0.0825, 0.99, 1.8975, 0.825, 1.7325, 0.66, 1.5675, 0.495, 1.4025, 0.33, 1.2375, 0.165, 1.0725, 0, 0.9075, 1.815, 0.7425, 1.65, 0.5775, 1.485, 0.4125, 1.32, 0.2475, 1.155, 0.0825, 0.99, 1.8975, 0.825, 1.7325, 0.66, 1.5675, 0.495, 1.4025, 0.33, 1.2375, 0.165, 1.0725],
  "SoftwareVersions": "syngo_MR_D13D",
  "SpacingBetweenSlices": 1.9,
  "StationName": "AWP66014",
  "TaskName": "retrieval",
  "TotalReadoutTime": 0.0534753,
  "TxRefAmp": 225.868,
  "WipMemBlock": "b860a84d-c6ae-42f4-b87e-437efe43267c||Sequence: vd13d/master r/0735857; Nov 19 2014 09:21:40 by eja",
  "dcmmeta_affine": [
    [-1.8964473009109497, -0.01986030489206314, 0.001319534843787551, 110.60250091552734],
    [-0.0198822058737278, 1.8960872888565063, -0.037027642130851746, -98.0079345703125],
    [0.0009297753567807376, 0.03697221353650093, 1.8996386528015137, -63.26181411743164],
    [0.0, 0.0, 0.0, 1.0]
],
  "dcmmeta_reorient_transform": [
    [0.0, -1.0, 0.0, 115.0],
    [1.0, 0.0, 0.0, 0.0],
    [0.0, 0.0, 1.0, 0.0],
    [0.0, 0.0, 0.0, 1.0]
],
  "dcmmeta_shape": [116, 116, 72, 289],
  "dcmmeta_slice_dim": 2,
  "dcmmeta_version": 0.6,
  "global": {
    "const": {
      "AcquisitionMatrix": [116, 0, 0, 116],
      "AngioFlag": "N",
      "BitsAllocated": 16,
      "BitsStored": 16,
      "BodyPartExamined": "HEAD",
      "Columns": 1044,
      "EchoNumbers": 1,
      "EchoTime": 30.0,
      "EchoTrainLength": 50,
      "FlipAngle": 81.0,
      "HighBit": 15,
      "ImageOrientationPatient": [0.99994492805795, 0.0104833444484, 0.00049024519559, -0.0104717969774, 0.99975512416266, -0.0194944396833],
      "ImagePositionPatient": [-979.05492564986, -1009.0519567592, -42.286318912999],
      "ImageType": [
        "ORIGINAL",
        "PRIMARY",
        "M",
        "MB",
        "ND",
        "MOSAIC"
],
      "ImagedNucleus": "1H",
      "ImagingFrequency": 123.260562,
      "InPlanePhaseEncodingDirection": "COL",
      "LargestImagePixelValue": 65535,
      "MRAcquisitionType": "2D",
      "MagneticFieldStrength": 3.0,
      "Manufacturer": "SIEMENS",
      "ManufacturerModelName": "Prisma",
      "Modality": "MR",
      "NumberOfAverages": 1.0,
      "NumberOfPhaseEncodingSteps": 101,
      "PercentPhaseFieldOfView": 100.0,
      "PercentSampling": 100.0,
      "PerformedProcedureStepStartTime": "085441.746000",
      "PhotometricInterpretation": "MONOCHROME2",
      "PixelBandwidth": 1435.0,
      "PixelRepresentation": 0,
      "PixelSpacing": [1.8965517282486, 1.8965517282486],
      "ProtocolName": "mbep2d_bold_MB3_test1",
      "RepetitionTime": 2000.0,
      "Rows": 1044,
      "SAR": 0.05030375076568,
      "SamplesPerPixel": 1,
      "ScanOptions": [
        "PFP",
        "FS"
],
      "ScanningSequence": "EP",
      "SequenceName": "epfid2d1_116",
      "SequenceVariant": [
        "SK",
        "SS"
],
      "SeriesDescription": "mbep2d_bold_MB3_test1",
      "SeriesNumber": 6,
      "SeriesTime": "090942.928000",
      "SliceLocation": -61.262971055418,
      "SliceThickness": 1.8999999761581,
      "SmallestImagePixelValue": 0,
      "SoftwareVersions": "syngo MR D13D",
      "SpacingBetweenSlices": 1.8999999402839,
      "SpecificCharacterSet": "ISO_IR 100",
      "StudyID": "1",
      "StudyTime": "085441.690000",
      "TimeOfLastCalibration": ["123723.000000", "123723.000000"],
      "TransmitCoilName": "Body",
      "VariableFlipAngleFlag": "N",
      "WindowCenterWidthExplanation": "Algo1",
      "dBdt": 0.0},
    "slices": {}
  },
  "time": {
    "samples": {
      "AcquisitionNumber": [1, 2, 3, 4, 5, 6, 7, 8, 9, 10, 11, 12, 13, 14, 15, 16, 17, 18, 19, 20, 21, 22, 23, 24, 25, 26, 27, 28, 29, 30, 31, 32, 33, 34, 35, 36, 37, 38, 39, 40, 41, 42, 43, 44, 45, 46, 47, 48, 49, 50, 51, 52, 53, 54, 55, 56, 57, 58, 59, 60, 61, 62, 63, 64, 65, 66, 67, 68, 69, 70, 71, 72, 73, 74, 75, 76, 77, 78, 79, 80, 81, 82, 83, 84, 85, 86, 87, 88, 89, 90, 91, 92, 93, 94, 95, 96, 97, 98, 99, 100, 101, 102, 103, 104, 105, 106, 107, 108, 109, 110, 111, 112, 113, 114, 115, 116, 117, 118, 119, 120, 121, 122, 123, 124, 125, 126, 127, 128, 129, 130, 131, 132, 133, 134, 135, 136, 137, 138, 139, 140, 141, 142, 143, 144, 145, 146, 147, 148, 149, 150, 151, 152, 153, 154, 155, 156, 157, 158, 159, 160, 161, 162, 163, 164, 165, 166, 167, 168, 169, 170, 171, 172, 173, 174, 175, 176, 177, 178, 179, 180, 181, 182, 183, 184, 185, 186, 187, 188, 189, 190, 191, 192, 193, 194, 195, 196, 197, 198, 199, 200, 201, 202, 203, 204, 205, 206, 207, 208, 209, 210, 211, 212, 213, 214, 215, 216, 217, 218, 219, 220, 221, 222, 223, 224, 225, 226, 227, 228, 229, 230, 231, 232, 233, 234, 235, 236, 237, 238, 239, 240, 241, 242, 243, 244, 245, 246, 247, 248, 249, 250, 251, 252, 253, 254, 255, 256, 257, 258, 259, 260, 261, 262, 263, 264, 265, 266, 267, 268, 269, 270, 271, 272, 273, 274, 275, 276, 277, 278, 279, 280, 281, 282, 283, 284, 285, 286, 287, 288, 289],
      "AcquisitionTime": ["090930.625000", "090932.625000", "090934.625000", "090936.625000", "090938.625000", "090940.625000", "090942.625000", "090944.625000", "090946.625000", "090948.625000", "090950.625000", "090952.625000", "090954.625000", "090956.625000", "090958.625000", "091000.625000", "091002.625000", "091004.625000", "091006.625000", "091008.625000", "091010.625000", "091012.625000", "091014.625000", "091016.625000", "091018.625000", "091020.625000", "091022.625000", "091024.625000", "091026.625000", "091028.625000", "091030.625000", "091032.625000", "091034.625000", "091036.625000", "091038.625000", "091040.625000", "091042.625000", "091044.625000", "091046.625000", "091048.625000", "091050.625000", "091052.625000", "091054.625000", "091056.625000", "091058.625000", "091100.625000", "091102.625000", "091104.625000", "091106.625000", "091108.625000", "091110.625000", "091112.625000", "091114.625000", "091116.625000", "091118.625000", "091120.625000", "091122.625000", "091124.625000", "091126.625000", "091128.625000", "091130.625000", "091132.625000", "091134.625000", "091136.625000", "091138.625000", "091140.625000", "091142.625000", "091144.625000", "091146.625000", "091148.625000", "091150.625000", "091152.625000", "091154.625000", "091156.625000", "091158.625000", "091200.625000", "091202.625000", "091204.625000", "091206.625000", "091208.625000", "091210.625000", "091212.625000", "091214.625000", "091216.625000", "091218.625000", "091220.625000", "091222.625000", "091224.625000", "091226.625000", "091228.625000", "091230.625000", "091232.625000", "091234.625000", "091236.625000", "091238.625000", "091240.625000", "091242.625000", "091244.625000", "091246.625000", "091248.625000", "091250.625000", "091252.625000", "091254.625000", "091256.625000", "091258.625000", "091300.625000", "091302.625000", "091304.625000", "091306.625000", "091308.627500", "091310.627500", "091312.627500", "091314.627500", "091316.627500", "091318.627500", "091320.627500", "091322.627500", "091324.627500", "091326.627500", "091328.627500", "091330.627500", "091332.627500", "091334.627500", "091336.627500", "091338.627500", "091340.627500", "091342.627500", "091344.627500", "091346.627500", "091348.627500", "091350.627500", "091352.627500", "091354.627500", "091356.627500", "091358.627500", "091400.627500", "091402.627500", "091404.627500", "091406.627500", "091408.627500", "091410.627500", "091412.627500", "091414.627500", "091416.627500", "091418.627500", "091420.627500", "091422.627500", "091424.627500", "091426.627500", "091428.627500", "091430.627500", "091432.627500", "091434.627500", "091436.627500", "091438.627500", "091440.627500", "091442.627500", "091444.627500", "091446.627500", "091448.627500", "091450.627500", "091452.627500", "091454.627500", "091456.627500", "091458.627500", "091500.627500", "091502.627500", "091504.627500", "091506.627500", "091508.627500", "091510.627500", "091512.627500", "091514.627500", "091516.627500", "091518.627500", "091520.627500", "091522.627500", "091524.627500", "091526.627500", "091528.627500", "091530.627500", "091532.627500", "091534.627500", "091536.627500", "091538.627500", "091540.627500", "091542.627500", "091544.627500", "091546.627500", "091548.627500", "091550.627500", "091552.627500", "091554.627500", "091556.627500", "091558.627500", "091600.627500", "091602.627500", "091604.627500", "091606.627500", "091608.627500", "091610.627500", "091612.627500", "091614.627500", "091616.627500", "091618.627500", "091620.627500", "091622.627500", "091624.627500", "091626.627500", "091628.627500", "091630.627500", "091632.627500", "091634.627500", "091636.627500", "091638.627500", "091640.627500", "091642.627500", "091644.627500", "091646.627500", "091648.627500", "091650.627500", "091652.627500", "091654.627500", "091656.627500", "091658.627500", "091700.627500", "091702.627500", "091704.627500", "091706.627500", "091708.627500", "091710.627500", "091712.627500", "091714.627500", "091716.627500", "091718.627500", "091720.627500", "091722.627500", "091724.627500", "091726.627500", "091728.627500", "091730.627500", "091732.627500", "091734.627500", "091736.627500", "091738.627500", "091740.627500", "091742.627500", "091744.627500", "091746.627500", "091748.627500", "091750.627500", "091752.627500", "091754.627500", "091756.627500", "091758.627500", "091800.627500", "091802.627500", "091804.627500", "091806.627500", "091808.627500", "091810.627500", "091812.627500", "091814.627500", "091816.627500", "091818.627500", "091820.627500", "091822.627500", "091824.627500", "091826.627500", "091828.627500", "091830.627500", "091832.627500", "091834.627500", "091836.627500", "091838.627500", "091840.627500", "091842.627500", "091844.627500", "091846.627500", "091848.627500", "091850.627500", "091852.627500", "091854.627500", "091856.627500", "091858.627500", "091900.627500", "091902.627500", "091904.627500", "091906.627500"],
      "ContentTime": ["090942.934000", "090943.927000", "090943.931000", "090944.927000", "090944.936000", "090945.928000", "090946.927000", "090947.926000", "090949.928000", "090951.928000", "090953.928000", "090955.929000", "090957.928000", "090959.428000", "091001.928000", "091003.928000", "091005.928000", "091007.928000", "091009.928000", "091011.928000", "091013.927000", "091015.928000", "091017.928000", "091019.928000", "091021.928000", "091023.426000", "091025.928000", "091027.929000", "091029.926000", "091031.928000", "091033.928000", "091035.928000", "091037.928000", "091039.928000", "091041.928000", "091043.928000", "091045.929000", "091047.928000", "091049.928000", "091051.928000", "091053.928000", "091055.928000", "091057.928000", "091059.929000", "091101.929000", "091103.929000", "091105.928000", "091107.928000", "091109.929000", "091111.428000", "091113.928000", "091115.928000", "091117.928000", "091119.927000", "091121.928000", "091123.937000", "091125.929000", "091127.929000", "091129.929000", "091131.928000", "091133.928000", "091135.928000", "091137.928000", "091139.927000", "091141.928000", "091143.928000", "091145.928000", "091147.928000", "091149.928000", "091151.928000", "091153.928000", "091155.928000", "091157.928000", "091159.928000", "091201.928000", "091203.928000", "091205.928000", "091207.929000", "091209.929000", "091211.928000", "091213.928000", "091215.929000", "091217.928000", "091219.928000", "091221.929000", "091223.929000", "091225.928000", "091227.929000", "091229.928000", "091231.928000", "091233.928000", "091235.929000", "091237.928000", "091239.928000", "091241.929000", "091243.928000", "091245.929000", "091247.928000", "091249.928000", "091251.928000", "091253.927000", "091255.427000", "091257.928000", "091259.428000", "091301.928000", "091303.929000", "091305.928000", "091307.427000", "091309.927000", "091311.928000", "091313.929000", "091315.929000", "091317.928000", "091319.928000", "091321.929000", "091323.927000", "091325.928000", "091327.428000", "091329.928000", "091331.427000", "091333.928000", "091335.928000", "091337.929000", "091339.928000", "091341.928000", "091343.928000", "091345.928000", "091347.428000", "091349.928000", "091351.928000", "091353.928000", "091355.427000", "091357.928000", "091359.928000", "091401.928000", "091403.928000", "091405.928000", "091407.928000", "091409.929000", "091411.929000", "091413.928000", "091415.928000", "091417.928000", "091419.428000", "091421.928000", "091423.427000", "091425.929000", "091427.928000", "091429.928000", "091431.929000", "091433.928000", "091435.929000", "091437.928000", "091439.426000", "091441.928000", "091443.428000", "091445.928000", "091447.928000", "091449.928000", "091451.928000", "091453.928000", "091455.928000", "091457.928000", "091459.928000", "091501.928000", "091503.928000", "091505.928000", "091507.928000", "091509.929000", "091511.928000", "091513.929000", "091515.927000", "091517.928000", "091519.928000", "091521.928000", "091523.428000", "091525.928000", "091527.428000", "091529.929000", "091531.928000", "091533.928000", "091535.928000", "091537.928000", "091539.929000", "091541.928000", "091543.928000", "091545.928000", "091547.427000", "091549.929000", "091551.928000", "091553.928000", "091555.928000", "091557.928000", "091559.427000", "091601.929000", "091603.928000", "091605.929000", "091607.928000", "091609.428000", "091611.928000", "091613.928000", "091615.929000", "091617.927000", "091619.928000", "091621.928000", "091623.428000", "091625.929000", "091627.928000", "091629.928000", "091631.929000", "091633.928000", "091635.428000", "091637.928000", "091639.928000", "091641.928000", "091643.427000", "091645.928000", "091647.928000", "091649.928000", "091651.928000", "091653.929000", "091655.929000", "091657.929000", "091659.427000", "091701.928000", "091703.428000", "091705.929000", "091707.929000", "091709.928000", "091711.426000", "091713.928000", "091715.434000", "091717.928000", "091719.427000", "091721.928000", "091723.427000", "091725.928000", "091727.429000", "091729.929000", "091731.428000", "091733.927000", "091735.427000", "091737.928000", "091739.428000", "091741.929000", "091743.928000", "091745.928000", "091747.928000", "091749.928000", "091751.427000", "091753.929000", "091755.428000", "091757.928000", "091759.428000", "091801.928000", "091803.427000", "091805.427000", "091807.428000", "091809.928000", "091811.429000", "091813.428000", "091815.428000", "091817.928000", "091819.928000", "091821.929000", "091823.428000", "091825.928000", "091827.928000", "091829.928000", "091831.427000", "091833.928000", "091835.428000", "091837.929000", "091839.428000", "091841.928000", "091843.429000", "091845.928000", "091847.427000", "091849.928000", "091851.428000", "091853.928000", "091855.428000", "091857.929000", "091859.427000", "091901.928000", "091903.928000", "091905.929000", "091907.427000", "091909.402000"],
      "InstanceCreationTime": ["090942.934000", "090943.927000", "090943.931000", "090944.927000", "090944.936000", "090945.928000", "090946.927000", "090947.926000", "090949.928000", "090951.928000", "090953.928000", "090955.929000", "090957.928000", "090959.428000", "091001.928000", "091003.928000", "091005.928000", "091007.928000", "091009.928000", "091011.928000", "091013.927000", "091015.928000", "091017.928000", "091019.928000", "091021.928000", "091023.426000", "091025.928000", "091027.929000", "091029.926000", "091031.928000", "091033.928000", "091035.928000", "091037.928000", "091039.928000", "091041.928000", "091043.928000", "091045.929000", "091047.928000", "091049.928000", "091051.928000", "091053.928000", "091055.928000", "091057.928000", "091059.929000", "091101.929000", "091103.929000", "091105.928000", "091107.928000", "091109.929000", "091111.428000", "091113.928000", "091115.928000", "091117.928000", "091119.927000", "091121.928000", "091123.937000", "091125.929000", "091127.929000", "091129.929000", "091131.928000", "091133.928000", "091135.928000", "091137.928000", "091139.927000", "091141.928000", "091143.928000", "091145.928000", "091147.928000", "091149.928000", "091151.928000", "091153.928000", "091155.928000", "091157.928000", "091159.928000", "091201.928000", "091203.928000", "091205.928000", "091207.929000", "091209.929000", "091211.928000", "091213.928000", "091215.929000", "091217.928000", "091219.928000", "091221.929000", "091223.929000", "091225.928000", "091227.929000", "091229.928000", "091231.928000", "091233.928000", "091235.929000", "091237.928000", "091239.928000", "091241.929000", "091243.928000", "091245.929000", "091247.928000", "091249.928000", "091251.928000", "091253.927000", "091255.427000", "091257.928000", "091259.428000", "091301.928000", "091303.929000", "091305.928000", "091307.427000", "091309.927000", "091311.928000", "091313.929000", "091315.929000", "091317.928000", "091319.928000", "091321.929000", "091323.927000", "091325.928000", "091327.428000", "091329.928000", "091331.427000", "091333.928000", "091335.928000", "091337.929000", "091339.928000", "091341.928000", "091343.928000", "091345.928000", "091347.428000", "091349.928000", "091351.928000", "091353.928000", "091355.427000", "091357.928000", "091359.928000", "091401.928000", "091403.928000", "091405.928000", "091407.928000", "091409.929000", "091411.929000", "091413.928000", "091415.928000", "091417.928000", "091419.428000", "091421.928000", "091423.427000", "091425.929000", "091427.928000", "091429.928000", "091431.929000", "091433.928000", "091435.929000", "091437.928000", "091439.426000", "091441.928000", "091443.428000", "091445.928000", "091447.928000", "091449.928000", "091451.928000", "091453.928000", "091455.928000", "091457.928000", "091459.928000", "091501.928000", "091503.928000", "091505.928000", "091507.928000", "091509.929000", "091511.928000", "091513.929000", "091515.927000", "091517.928000", "091519.928000", "091521.928000", "091523.428000", "091525.928000", "091527.428000", "091529.929000", "091531.928000", "091533.928000", "091535.928000", "091537.928000", "091539.929000", "091541.928000", "091543.928000", "091545.928000", "091547.427000", "091549.929000", "091551.928000", "091553.928000", "091555.928000", "091557.928000", "091559.427000", "091601.929000", "091603.928000", "091605.929000", "091607.928000", "091609.428000", "091611.928000", "091613.928000", "091615.929000", "091617.927000", "091619.928000", "091621.928000", "091623.428000", "091625.929000", "091627.928000", "091629.928000", "091631.929000", "091633.928000", "091635.428000", "091637.928000", "091639.928000", "091641.928000", "091643.427000", "091645.928000", "091647.928000", "091649.928000", "091651.928000", "091653.929000", "091655.929000", "091657.929000", "091659.427000", "091701.928000", "091703.428000", "091705.929000", "091707.929000", "091709.928000", "091711.426000", "091713.928000", "091715.434000", "091717.928000", "091719.427000", "091721.928000", "091723.427000", "091725.928000", "091727.429000", "091729.929000", "091731.428000", "091733.927000", "091735.427000", "091737.928000", "091739.428000", "091741.929000", "091743.928000", "091745.928000", "091747.928000", "091749.928000", "091751.427000", "091753.929000", "091755.428000", "091757.928000", "091759.428000", "091801.928000", "091803.427000", "091805.427000", "091807.428000", "091809.928000", "091811.429000", "091813.428000", "091815.428000", "091817.928000", "091819.928000", "091821.929000", "091823.428000", "091825.928000", "091827.928000", "091829.928000", "091831.427000", "091833.928000", "091835.428000", "091837.929000", "091839.428000", "091841.928000", "091843.429000", "091845.928000", "091847.427000", "091849.928000", "091851.428000", "091853.928000", "091855.428000", "091857.929000", "091859.427000", "091901.928000", "091903.928000", "091905.929000", "091907.427000", "091909.402000"],
      "InstanceNumber": [1, 2, 3, 4, 5, 6, 7, 8, 9, 10, 11, 12, 13, 14, 15, 16, 17, 18, 19, 20, 21, 22, 23, 24, 25, 26, 27, 28, 29, 30, 31, 32, 33, 34, 35, 36, 37, 38, 39, 40, 41, 42, 43, 44, 45, 46, 47, 48, 49, 50, 51, 52, 53, 54, 55, 56, 57, 58, 59, 60, 61, 62, 63, 64, 65, 66, 67, 68, 69, 70, 71, 72, 73, 74, 75, 76, 77, 78, 79, 80, 81, 82, 83, 84, 85, 86, 87, 88, 89, 90, 91, 92, 93, 94, 95, 96, 97, 98, 99, 100, 101, 102, 103, 104, 105, 106, 107, 108, 109, 110, 111, 112, 113, 114, 115, 116, 117, 118, 119, 120, 121, 122, 123, 124, 125, 126, 127, 128, 129, 130, 131, 132, 133, 134, 135, 136, 137, 138, 139, 140, 141, 142, 143, 144, 145, 146, 147, 148, 149, 150, 151, 152, 153, 154, 155, 156, 157, 158, 159, 160, 161, 162, 163, 164, 165, 166, 167, 168, 169, 170, 171, 172, 173, 174, 175, 176, 177, 178, 179, 180, 181, 182, 183, 184, 185, 186, 187, 188, 189, 190, 191, 192, 193, 194, 195, 196, 197, 198, 199, 200, 201, 202, 203, 204, 205, 206, 207, 208, 209, 210, 211, 212, 213, 214, 215, 216, 217, 218, 219, 220, 221, 222, 223, 224, 225, 226, 227, 228, 229, 230, 231, 232, 233, 234, 235, 236, 237, 238, 239, 240, 241, 242, 243, 244, 245, 246, 247, 248, 249, 250, 251, 252, 253, 254, 255, 256, 257, 258, 259, 260, 261, 262, 263, 264, 265, 266, 267, 268, 269, 270, 271, 272, 273, 274, 275, 276, 277, 278, 279, 280, 281, 282, 283, 284, 285, 286, 287, 288, 289],
      "WindowCenter": [17183.0, 17187.0, 17174.0, 17183.0, 17196.0, 17164.0, 17198.0, 17189.0, 17178.0, 17161.0, 17158.0, 17171.0, 17163.0, 17178.0, 17165.0, 17164.0, 17183.0, 17172.0, 17163.0, 17165.0, 17153.0, 17170.0, 17159.0, 17172.0, 17178.0, 17151.0, 17168.0, 17164.0, 17166.0, 17164.0, 17177.0, 17176.0, 17171.0, 17162.0, 17166.0, 17163.0, 17164.0, 17176.0, 17158.0, 17165.0, 17174.0, 17186.0, 17184.0, 17165.0, 17184.0, 17189.0, 17179.0, 17178.0, 17170.0, 17169.0, 17156.0, 17172.0, 17192.0, 17180.0, 17181.0, 17178.0, 17175.0, 17198.0, 17181.0, 17177.0, 17173.0, 17176.0, 17167.0, 17178.0, 17188.0, 17198.0, 17171.0, 17191.0, 17206.0, 17211.0, 17197.0, 17189.0, 17189.0, 17194.0, 17185.0, 17190.0, 17210.0, 17210.0, 17224.0, 17209.0, 17189.0, 17176.0, 17181.0, 17183.0, 17203.0, 17207.0, 17198.0, 17175.0, 17198.0, 17199.0, 17196.0, 17185.0, 17173.0, 17170.0, 17190.0, 17203.0, 17192.0, 17189.0, 17192.0, 17210.0, 17208.0, 17235.0, 17245.0, 17229.0, 17225.0, 17198.0, 17193.0, 17202.0, 17195.0, 17182.0, 17196.0, 17200.0, 17192.0, 17206.0, 17212.0, 17214.0, 17220.0, 17214.0, 17201.0, 17213.0, 17229.0, 17190.0, 17212.0, 17215.0, 17207.0, 17196.0, 17202.0, 17208.0, 17203.0, 17188.0, 17197.0, 17202.0, 17194.0, 17196.0, 17193.0, 17179.0, 17201.0, 17201.0, 17206.0, 17196.0, 17209.0, 17185.0, 17199.0, 17195.0, 17203.0, 17200.0, 17182.0, 17211.0, 17201.0, 17216.0, 17221.0, 17215.0, 17200.0, 17186.0, 17204.0, 17205.0, 17209.0, 17193.0, 17180.0, 17181.0, 17190.0, 17203.0, 17199.0, 17180.0, 17181.0, 17200.0, 17209.0, 17204.0, 17202.0, 17201.0, 17195.0, 17194.0, 17208.0, 17203.0, 17205.0, 17200.0, 17213.0, 17214.0, 17201.0, 17190.0, 17219.0, 17216.0, 17221.0, 17216.0, 17223.0, 17212.0, 17228.0, 17231.0, 17224.0, 17219.0, 17216.0, 17217.0, 17211.0, 17211.0, 17217.0, 17208.0, 17209.0, 17205.0, 17231.0, 17201.0, 17208.0, 17216.0, 17224.0, 17217.0, 17220.0, 17207.0, 17206.0, 17212.0, 17217.0, 17236.0, 17242.0, 17221.0, 17234.0, 17229.0, 17236.0, 17242.0, 17222.0, 17230.0, 17217.0, 17229.0, 17231.0, 17236.0, 17251.0, 17221.0, 17206.0, 17204.0, 17210.0, 17224.0, 17247.0, 17237.0, 17226.0, 17219.0, 17207.0, 17239.0, 17240.0, 17246.0, 17221.0, 17216.0, 17218.0, 17217.0, 17213.0, 17210.0, 17201.0, 17216.0, 17222.0, 17210.0, 17209.0, 17222.0, 17198.0, 17207.0, 17223.0, 17222.0, 17248.0, 17225.0, 17231.0, 17215.0, 17237.0, 17234.0, 17237.0, 17216.0, 17229.0, 17239.0, 17222.0, 17227.0, 17229.0, 17214.0, 17223.0, 17223.0, 17226.0, 17227.0, 17259.0, 17234.0, 17243.0, 17221.0, 17241.0, 17245.0, 17242.0, 17251.0, 17261.0, 17228.0, 17227.0, 17247.0, 17225.0, 17221.0, 17223.0, 17223.0, 17231.0, 17227.0, 17221.0],
      "WindowWidth": [48589.0, 48527.0, 48618.0, 48651.0, 48646.0, 48664.0, 48649.0, 48654.0, 48637.0, 48662.0, 48635.0, 48630.0, 48600.0, 48596.0, 48627.0, 48650.0, 48638.0, 48669.0, 48676.0, 48650.0, 48681.0, 48666.0, 48659.0, 48642.0, 48609.0, 48590.0, 48577.0, 48600.0, 48628.0, 48653.0, 48697.0, 48632.0, 48617.0, 48558.0, 48511.0, 48523.0, 48511.0, 48506.0, 48560.0, 48587.0, 48581.0, 48602.0, 48601.0, 48602.0, 48654.0, 48668.0, 48622.0, 48558.0, 48527.0, 48516.0, 48557.0, 48593.0, 48592.0, 48572.0, 48534.0, 48496.0, 48533.0, 48534.0, 48535.0, 48532.0, 48517.0, 48519.0, 48514.0, 48559.0, 48552.0, 48572.0, 48567.0, 48592.0, 48604.0, 48554.0, 48519.0, 48503.0, 48489.0, 48505.0, 48563.0, 48567.0, 48530.0, 48594.0, 48603.0, 48554.0, 48490.0, 48444.0, 48461.0, 48486.0, 48501.0, 48503.0, 48488.0, 48507.0, 48484.0, 48484.0, 48457.0, 48448.0, 48442.0, 48453.0, 48479.0, 48500.0, 48518.0, 48515.0, 48520.0, 48530.0, 48542.0, 48598.0, 48617.0, 48582.0, 48517.0, 48498.0, 48481.0, 48513.0, 48547.0, 48527.0, 48572.0, 48562.0, 48544.0, 48553.0, 48570.0, 48569.0, 48538.0, 48521.0, 48551.0, 48596.0, 48591.0, 48568.0, 48544.0, 48532.0, 48515.0, 48533.0, 48524.0, 48503.0, 48488.0, 48490.0, 48483.0, 48486.0, 48455.0, 48419.0, 48419.0, 48447.0, 48450.0, 48487.0, 48464.0, 48458.0, 48457.0, 48514.0, 48486.0, 48507.0, 48487.0, 48472.0, 48500.0, 48505.0, 48513.0, 48549.0, 48576.0, 48533.0, 48473.0, 48439.0, 48450.0, 48501.0, 48504.0, 48493.0, 48474.0, 48462.0, 48479.0, 48501.0, 48471.0, 48472.0, 48448.0, 48449.0, 48465.0, 48512.0, 48522.0, 48496.0, 48469.0, 48456.0, 48440.0, 48475.0, 48501.0, 48524.0, 48556.0, 48544.0, 48511.0, 48504.0, 48485.0, 48483.0, 48487.0, 48496.0, 48503.0, 48518.0, 48492.0, 48519.0, 48515.0, 48497.0, 48445.0, 48457.0, 48478.0, 48452.0, 48434.0, 48439.0, 48453.0, 48462.0, 48454.0, 48460.0, 48452.0, 48433.0, 48437.0, 48471.0, 48460.0, 48438.0, 48425.0, 48443.0, 48472.0, 48482.0, 48488.0, 48450.0, 48446.0, 48429.0, 48421.0, 48424.0, 48436.0, 48430.0, 48461.0, 48481.0, 48508.0, 48524.0, 48533.0, 48513.0, 48465.0, 48449.0, 48416.0, 48466.0, 48542.0, 48483.0, 48438.0, 48422.0, 48453.0, 48461.0, 48448.0, 48426.0, 48412.0, 48395.0, 48358.0, 48381.0, 48379.0, 48389.0, 48412.0, 48445.0, 48436.0, 48442.0, 48439.0, 48410.0, 48407.0, 48416.0, 48450.0, 48464.0, 48441.0, 48413.0, 48394.0, 48419.0, 48423.0, 48470.0, 48472.0, 48469.0, 48454.0, 48459.0, 48449.0, 48452.0, 48428.0, 48443.0, 48438.0, 48475.0, 48478.0, 48468.0, 48539.0, 48499.0, 48488.0, 48460.0, 48412.0, 48402.0, 48401.0, 48393.0, 48401.0, 48429.0, 48390.0, 48403.0, 48401.0, 48398.0, 48400.0, 48400.0, 48404.0, 48414.0, 48409.0]
    },
    "slices": {}
  }
}