{
  "AcquisitionMatrixPE": 116,
  "AcquisitionNumber": 1,
  "AcquisitionTime": "09:20:27.155000",
  "BandwidthPerPixelPhaseEncode": 18.539,
  "BaseResolution": 116,
  "BodyPartExamined": "HEAD",
  "ConsistencyInfo": "N4_VD13D_LATEST_20130810",
  "ConversionSoftware": "dcm2niix",
  "ConversionSoftwareVersion": "v1.0.20190410  (JP2:OpenJPEG) (JP-LS:CharLS) GCC5.5.0",
  "DerivedVendorReportedEchoSpacing": 0.000930006,
  "DeviceSerialNumber": "66014",
  "DwellTime": 3e-06,
  "EchoTime": 0.03,
  "EchoTrainLength": 50,
  "EffectiveEchoSpacing": 0.000465003,
  "FlipAngle": 81,
  "ImageComments": "Unaliased_MB3_PE4",
  "ImageOrientationPatientDICOM": [0.999945, 0.0104833, 0.000490245, -0.0104718, 0.999755, -0.0194944],
  "ImageType": [
    "ORIGINAL",
    "PRIMARY",
    "M",
    "MB",
    "ND",
    "MOSAIC"
],
  "ImagingFrequency": 123.261,
  "InPlanePhaseEncodingDirectionDICOM": "COL",
  "InstitutionAddress": "Yiheyuan_Road_5_Beijing_Haidian_CN_100871",
  "InstitutionName": "Peking_Univeristy",
  "InstitutionalDepartmentName": "Department",
  "MRAcquisitionType": "2D",
  "MagneticFieldStrength": 3,
  "Manufacturer": "Siemens",
  "ManufacturersModelName": "Prisma",
  "Modality": "MR",
  "MultibandAccelerationFactor": 3,
  "ParallelReductionFactorInPlane": 2,
  "PartialFourier": 0.875,
  "PatientPosition": "HFS",
  "PercentPhaseFOV": 100,
  "PhaseEncodingDirection": "j-",
  "PhaseEncodingSteps": 101,
  "PhaseResolution": 1,
  "PixelBandwidth": 1435,
  "ProcedureStepDescription": "Research_Projects_64CH",
  "ProtocolName": "mbep2d_bold_MB3_test2",
  "PulseSequenceDetails": "%CustomerSeq%_cmrr_mbep2d_bold",
  "ReceiveCoilActiveElements": "HC1-6",
  "ReceiveCoilName": "HeadNeck_64",
  "ReconMatrixPE": 116,
  "RefLinesPE": 44,
  "RepetitionTime": 2,
  "SAR": 0.0503037,
  "ScanOptions": "PFP_FS",
  "ScanningSequence": "EP",
  "SequenceName": "epfid2d1_116",
  "SequenceVariant": "SK_SS",
  "SeriesDescription": "mbep2d_bold_MB3_test2",
  "SeriesNumber": 7,
  "ShimSetting": [-3450, -2097, -1978, 334, -21, -123, -39, 29],
  "SliceThickness": 1.9,
  "SliceTiming": [0, 0.9075, 1.815, 0.7425, 1.65, 0.5775, 1.485, 0.4125, 1.32, 0.2475, 1.155, 0.0825, 0.99, 1.8975, 0.825, 1.7325, 0.66, 1.5675, 0.495, 1.4025, 0.33, 1.2375, 0.165, 1.0725, 0, 0.9075, 1.815, 0.7425, 1.65, 0.5775, 1.485, 0.4125, 1.32, 0.2475, 1.155, 0.0825, 0.99, 1.8975, 0.825, 1.7325, 0.66, 1.5675, 0.495, 1.4025, 0.33, 1.2375, 0.165, 1.0725, 0, 0.9075, 1.815, 0.7425, 1.65, 0.5775, 1.485, 0.4125, 1.32, 0.2475, 1.155, 0.0825, 0.99, 1.8975, 0.825, 1.7325, 0.66, 1.5675, 0.495, 1.4025, 0.33, 1.2375, 0.165, 1.0725],
  "SoftwareVersions": "syngo_MR_D13D",
  "SpacingBetweenSlices": 1.9,
  "StationName": "AWP66014",
  "TaskName": "retrieval",
  "TotalReadoutTime": 0.0534753,
  "TxRefAmp": 225.868,
  "WipMemBlock": "42c64af6-8e1b-4847-86a1-bc3941cd4cbc||Sequence: vd13d/master r/0735857; Nov 19 2014 09:21:40 by eja",
  "dcmmeta_affine": [
    [-1.8964473009109497, -0.01986030489206314, 0.001319534843787551, 110.60250091552734],
    [-0.0198822058737278, 1.8960872888565063, -0.037027642130851746, -98.0079345703125],
    [0.0009297753567807376, 0.03697221353650093, 1.8996386528015137, -63.26181411743164],
    [0.0, 0.0, 0.0, 1.0]
],
  "dcmmeta_reorient_transform": [
    [0.0, -1.0, 0.0, 115.0],
    [1.0, 0.0, 0.0, 0.0],
    [0.0, 0.0, 1.0, 0.0],
    [0.0, 0.0, 0.0, 1.0]
],
  "dcmmeta_shape": [116, 116, 72, 289],
  "dcmmeta_slice_dim": 2,
  "dcmmeta_version": 0.6,
  "global": {
    "const": {
      "AcquisitionMatrix": [116, 0, 0, 116],
      "AngioFlag": "N",
      "BitsAllocated": 16,
      "BitsStored": 16,
      "BodyPartExamined": "HEAD",
      "Columns": 1044,
      "EchoNumbers": 1,
      "EchoTime": 30.0,
      "EchoTrainLength": 50,
      "FlipAngle": 81.0,
      "HighBit": 15,
      "ImageOrientationPatient": [0.99994492805795, 0.0104833444484, 0.00049024519559, -0.0104717969774, 0.99975512416266, -0.0194944396833],
      "ImagePositionPatient": [-979.05492564986, -1009.0519567592, -42.286318912999],
      "ImageType": [
        "ORIGINAL",
        "PRIMARY",
        "M",
        "MB",
        "ND",
        "MOSAIC"
],
      "ImagedNucleus": "1H",
      "ImagingFrequency": 123.260559,
      "InPlanePhaseEncodingDirection": "COL",
      "LargestImagePixelValue": 65535,
      "MRAcquisitionType": "2D",
      "MagneticFieldStrength": 3.0,
      "Manufacturer": "SIEMENS",
      "ManufacturerModelName": "Prisma",
      "Modality": "MR",
      "NumberOfAverages": 1.0,
      "NumberOfPhaseEncodingSteps": 101,
      "PercentPhaseFieldOfView": 100.0,
      "PercentSampling": 100.0,
      "PerformedProcedureStepStartTime": "085441.746000",
      "PhotometricInterpretation": "MONOCHROME2",
      "PixelBandwidth": 1435.0,
      "PixelRepresentation": 0,
      "PixelSpacing": [1.8965517282486, 1.8965517282486],
      "ProtocolName": "mbep2d_bold_MB3_test2",
      "RepetitionTime": 2000.0,
      "Rows": 1044,
      "SAR": 0.05030375076568,
      "SamplesPerPixel": 1,
      "ScanOptions": [
        "PFP",
        "FS"
],
      "ScanningSequence": "EP",
      "SequenceName": "epfid2d1_116",
      "SequenceVariant": [
        "SK",
        "SS"
],
      "SeriesDescription": "mbep2d_bold_MB3_test2",
      "SeriesNumber": 7,
      "SeriesTime": "092039.888000",
      "SliceLocation": -61.262971055418,
      "SliceThickness": 1.8999999761581,
      "SmallestImagePixelValue": 0,
      "SoftwareVersions": "syngo MR D13D",
      "SpacingBetweenSlices": 1.8999999402839,
      "SpecificCharacterSet": "ISO_IR 100",
      "StudyID": "1",
      "StudyTime": "085441.690000",
      "TimeOfLastCalibration": ["123723.000000", "123723.000000"],
      "TransmitCoilName": "Body",
      "VariableFlipAngleFlag": "N",
      "WindowCenterWidthExplanation": "Algo1",
      "dBdt": 0.0},
    "slices": {}
  },
  "time": {
    "samples": {
      "AcquisitionNumber": [1, 2, 3, 4, 5, 6, 7, 8, 9, 10, 11, 12, 13, 14, 15, 16, 17, 18, 19, 20, 21, 22, 23, 24, 25, 26, 27, 28, 29, 30, 31, 32, 33, 34, 35, 36, 37, 38, 39, 40, 41, 42, 43, 44, 45, 46, 47, 48, 49, 50, 51, 52, 53, 54, 55, 56, 57, 58, 59, 60, 61, 62, 63, 64, 65, 66, 67, 68, 69, 70, 71, 72, 73, 74, 75, 76, 77, 78, 79, 80, 81, 82, 83, 84, 85, 86, 87, 88, 89, 90, 91, 92, 93, 94, 95, 96, 97, 98, 99, 100, 101, 102, 103, 104, 105, 106, 107, 108, 109, 110, 111, 112, 113, 114, 115, 116, 117, 118, 119, 120, 121, 122, 123, 124, 125, 126, 127, 128, 129, 130, 131, 132, 133, 134, 135, 136, 137, 138, 139, 140, 141, 142, 143, 144, 145, 146, 147, 148, 149, 150, 151, 152, 153, 154, 155, 156, 157, 158, 159, 160, 161, 162, 163, 164, 165, 166, 167, 168, 169, 170, 171, 172, 173, 174, 175, 176, 177, 178, 179, 180, 181, 182, 183, 184, 185, 186, 187, 188, 189, 190, 191, 192, 193, 194, 195, 196, 197, 198, 199, 200, 201, 202, 203, 204, 205, 206, 207, 208, 209, 210, 211, 212, 213, 214, 215, 216, 217, 218, 219, 220, 221, 222, 223, 224, 225, 226, 227, 228, 229, 230, 231, 232, 233, 234, 235, 236, 237, 238, 239, 240, 241, 242, 243, 244, 245, 246, 247, 248, 249, 250, 251, 252, 253, 254, 255, 256, 257, 258, 259, 260, 261, 262, 263, 264, 265, 266, 267, 268, 269, 270, 271, 272, 273, 274, 275, 276, 277, 278, 279, 280, 281, 282, 283, 284, 285, 286, 287, 288, 289],
      "AcquisitionTime": ["092027.155000", "092029.155000", "092031.155000", "092033.155000", "092035.155000", "092037.155000", "092039.155000", "092041.155000", "092043.155000", "092045.155000", "092047.155000", "092049.155000", "092051.155000", "092053.155000", "092055.155000", "092057.155000", "092059.155000", "092101.155000", "092103.155000", "092105.155000", "092107.155000", "092109.155000", "092111.155000", "092113.155000", "092115.155000", "092117.155000", "092119.155000", "092121.155000", "092123.155000", "092125.155000", "092127.155000", "092129.155000", "092131.155000", "092133.155000", "092135.155000", "092137.155000", "092139.155000", "092141.155000", "092143.155000", "092145.155000", "092147.155000", "092149.155000", "092151.155000", "092153.155000", "092155.155000", "092157.155000", "092159.155000", "092201.155000", "092203.155000", "092205.155000", "092207.155000", "092209.155000", "092211.155000", "092213.155000", "092215.155000", "092217.155000", "092219.155000", "092221.155000", "092223.155000", "092225.155000", "092227.155000", "092229.155000", "092231.155000", "092233.155000", "092235.155000", "092237.155000", "092239.155000", "092241.155000", "092243.155000", "092245.155000", "092247.155000", "092249.155000", "092251.155000", "092253.155000", "092255.155000", "092257.155000", "092259.155000", "092301.155000", "092303.155000", "092305.155000", "092307.155000", "092309.155000", "092311.155000", "092313.155000", "092315.155000", "092317.155000", "092319.155000", "092321.155000", "092323.155000", "092325.155000", "092327.155000", "092329.155000", "092331.155000", "092333.155000", "092335.155000", "092337.155000", "092339.155000", "092341.155000", "092343.155000", "092345.155000", "092347.155000", "092349.155000", "092351.155000", "092353.155000", "092355.155000", "092357.155000", "092359.155000", "092401.155000", "092403.155000", "092405.155000", "092407.155000", "092409.155000", "092411.155000", "092413.155000", "092415.155000", "092417.155000", "092419.155000", "092421.155000", "092423.155000", "092425.155000", "092427.155000", "092429.155000", "092431.155000", "092433.155000", "092435.155000", "092437.155000", "092439.155000", "092441.155000", "092443.157500", "092445.157500", "092447.157500", "092449.157500", "092451.157500", "092453.157500", "092455.157500", "092457.157500", "092459.157500", "092501.157500", "092503.157500", "092505.157500", "092507.157500", "092509.157500", "092511.157500", "092513.157500", "092515.157500", "092517.157500", "092519.157500", "092521.157500", "092523.157500", "092525.157500", "092527.157500", "092529.157500", "092531.157500", "092533.157500", "092535.157500", "092537.157500", "092539.157500", "092541.157500", "092543.157500", "092545.157500", "092547.157500", "092549.157500", "092551.157500", "092553.157500", "092555.157500", "092557.157500", "092559.157500", "092601.157500", "092603.157500", "092605.157500", "092607.157500", "092609.157500", "092611.157500", "092613.157500", "092615.157500", "092617.157500", "092619.157500", "092621.157500", "092623.157500", "092625.157500", "092627.157500", "092629.157500", "092631.157500", "092633.157500", "092635.157500", "092637.157500", "092639.157500", "092641.157500", "092643.157500", "092645.157500", "092647.157500", "092649.157500", "092651.157500", "092653.157500", "092655.157500", "092657.157500", "092659.157500", "092701.157500", "092703.157500", "092705.157500", "092707.157500", "092709.157500", "092711.157500", "092713.157500", "092715.157500", "092717.157500", "092719.157500", "092721.157500", "092723.157500", "092725.157500", "092727.157500", "092729.157500", "092731.157500", "092733.157500", "092735.157500", "092737.157500", "092739.157500", "092741.157500", "092743.157500", "092745.157500", "092747.157500", "092749.157500", "092751.157500", "092753.157500", "092755.157500", "092757.157500", "092759.157500", "092801.157500", "092803.157500", "092805.157500", "092807.157500", "092809.157500", "092811.157500", "092813.157500", "092815.157500", "092817.157500", "092819.157500", "092821.157500", "092823.157500", "092825.157500", "092827.157500", "092829.157500", "092831.157500", "092833.157500", "092835.157500", "092837.157500", "092839.157500", "092841.157500", "092843.157500", "092845.157500", "092847.157500", "092849.157500", "092851.157500", "092853.157500", "092855.157500", "092857.157500", "092859.157500", "092901.157500", "092903.157500", "092905.157500", "092907.157500", "092909.157500", "092911.157500", "092913.157500", "092915.157500", "092917.157500", "092919.157500", "092921.157500", "092923.157500", "092925.157500", "092927.157500", "092929.157500", "092931.157500", "092933.157500", "092935.157500", "092937.157500", "092939.157500", "092941.157500", "092943.157500", "092945.157500", "092947.157500", "092949.157500", "092951.157500", "092953.157500", "092955.157500", "092957.157500", "092959.157500", "093001.157500", "093003.157500"],
      "ContentTime": ["092039.893000", "092040.886000", "092040.890000", "092041.887000", "092041.891000", "092042.885000", "092043.885000", "092044.886000", "092046.386000", "092048.387000", "092050.387000", "092052.387000", "092054.387000", "092056.386000", "092058.387000", "092100.385000", "092102.386000", "092104.387000", "092106.387000", "092108.387000", "092110.387000", "092112.387000", "092114.387000", "092116.387000", "092118.386000", "092120.386000", "092122.387000", "092124.386000", "092126.388000", "092128.387000", "092130.387000", "092132.387000", "092134.387000", "092136.386000", "092138.386000", "092140.387000", "092142.387000", "092144.387000", "092146.387000", "092148.387000", "092150.387000", "092152.387000", "092154.386000", "092156.387000", "092158.387000", "092200.387000", "092202.387000", "092204.388000", "092206.387000", "092208.388000", "092210.386000", "092212.386000", "092214.387000", "092216.387000", "092218.387000", "092220.387000", "092222.387000", "092224.386000", "092226.387000", "092228.386000", "092230.386000", "092232.387000", "092234.387000", "092236.388000", "092238.387000", "092240.387000", "092242.387000", "092244.387000", "092246.386000", "092248.386000", "092250.387000", "092252.387000", "092254.387000", "092256.388000", "092258.387000", "092300.387000", "092302.388000", "092304.386000", "092306.387000", "092308.387000", "092310.387000", "092312.387000", "092314.387000", "092316.387000", "092318.387000", "092320.386000", "092322.386000", "092324.388000", "092326.394000", "092328.387000", "092330.387000", "092332.387000", "092334.387000", "092336.387000", "092338.386000", "092340.386000", "092342.387000", "092344.387000", "092346.387000", "092348.387000", "092350.387000", "092352.387000", "092354.387000", "092356.387000", "092358.386000", "092400.387000", "092402.387000", "092404.387000", "092406.387000", "092408.386000", "092410.387000", "092412.387000", "092414.386000", "092416.387000", "092418.387000", "092420.387000", "092422.387000", "092424.387000", "092426.388000", "092428.387000", "092430.386000", "092432.386000", "092434.387000", "092436.387000", "092438.387000", "092440.387000", "092442.387000", "092444.386000", "092446.387000", "092448.386000", "092450.386000", "092452.387000", "092454.387000", "092456.387000", "092458.387000", "092500.387000", "092502.387000", "092504.386000", "092506.386000", "092508.386000", "092510.387000", "092512.387000", "092514.388000", "092516.387000", "092518.386000", "092520.386000", "092522.386000", "092524.385000", "092526.386000", "092528.386000", "092530.385000", "092532.386000", "092534.386000", "092536.386000", "092538.386000", "092540.385000", "092542.385000", "092544.386000", "092546.386000", "092548.386000", "092550.386000", "092552.386000", "092554.386000", "092556.386000", "092558.385000", "092600.385000", "092602.386000", "092604.386000", "092606.386000", "092608.386000", "092610.387000", "092612.386000", "092614.387000", "092616.386000", "092618.386000", "092620.387000", "092622.387000", "092624.387000", "092626.387000", "092628.387000", "092630.387000", "092632.387000", "092634.386000", "092636.387000", "092638.387000", "092640.387000", "092642.387000", "092644.388000", "092646.387000", "092648.387000", "092650.386000", "092652.386000", "092654.388000", "092656.387000", "092658.387000", "092700.387000", "092702.388000", "092704.387000", "092706.387000", "092708.385000", "092710.386000", "092712.387000", "092714.387000", "092716.387000", "092718.387000", "092720.387000", "092722.388000", "092724.387000", "092726.387000", "092728.387000", "092730.388000", "092732.387000", "092734.387000", "092736.387000", "092738.387000", "092740.387000", "092742.387000", "092744.386000", "092746.387000", "092748.387000", "092750.387000", "092752.387000", "092754.387000", "092756.387000", "092758.387000", "092800.386000", "092802.387000", "092804.387000", "092806.387000", "092808.388000", "092810.387000", "092812.387000", "092814.387000", "092816.387000", "092818.386000", "092820.385000", "092822.388000", "092824.387000", "092826.387000", "092828.387000", "092830.387000", "092832.387000", "092834.387000", "092836.387000", "092838.387000", "092840.387000", "092842.387000", "092844.387000", "092846.387000", "092848.387000", "092850.387000", "092852.387000", "092854.387000", "092856.394000", "092858.387000", "092900.387000", "092902.387000", "092904.387000", "092906.387000", "092908.387000", "092910.386000", "092912.386000", "092914.387000", "092916.387000", "092918.387000", "092920.387000", "092922.387000", "092924.388000", "092926.387000", "092928.386000", "092930.387000", "092932.387000", "092934.387000", "092936.386000", "092938.387000", "092940.388000", "092942.387000", "092944.387000", "092946.386000", "092948.387000", "092950.388000", "092952.387000", "092954.387000", "092956.387000", "092958.387000", "093000.387000", "093002.387000", "093004.386000", "093005.935000"],
      "InstanceCreationTime": ["092039.893000", "092040.886000", "092040.890000", "092041.887000", "092041.891000", "092042.885000", "092043.885000", "092044.886000", "092046.386000", "092048.387000", "092050.387000", "092052.387000", "092054.387000", "092056.386000", "092058.387000", "092100.385000", "092102.386000", "092104.387000", "092106.387000", "092108.387000", "092110.387000", "092112.387000", "092114.387000", "092116.387000", "092118.386000", "092120.386000", "092122.387000", "092124.386000", "092126.388000", "092128.387000", "092130.387000", "092132.387000", "092134.387000", "092136.386000", "092138.386000", "092140.387000", "092142.387000", "092144.387000", "092146.387000", "092148.387000", "092150.387000", "092152.387000", "092154.386000", "092156.387000", "092158.387000", "092200.387000", "092202.387000", "092204.388000", "092206.387000", "092208.388000", "092210.386000", "092212.386000", "092214.387000", "092216.387000", "092218.387000", "092220.387000", "092222.387000", "092224.386000", "092226.387000", "092228.386000", "092230.386000", "092232.387000", "092234.387000", "092236.388000", "092238.387000", "092240.387000", "092242.387000", "092244.387000", "092246.386000", "092248.386000", "092250.387000", "092252.387000", "092254.387000", "092256.388000", "092258.387000", "092300.387000", "092302.388000", "092304.386000", "092306.387000", "092308.387000", "092310.387000", "092312.387000", "092314.387000", "092316.387000", "092318.387000", "092320.386000", "092322.386000", "092324.388000", "092326.394000", "092328.387000", "092330.387000", "092332.387000", "092334.387000", "092336.387000", "092338.386000", "092340.386000", "092342.387000", "092344.387000", "092346.387000", "092348.387000", "092350.387000", "092352.387000", "092354.387000", "092356.387000", "092358.386000", "092400.387000", "092402.387000", "092404.387000", "092406.387000", "092408.386000", "092410.387000", "092412.387000", "092414.386000", "092416.387000", "092418.387000", "092420.387000", "092422.387000", "092424.387000", "092426.388000", "092428.387000", "092430.386000", "092432.386000", "092434.387000", "092436.387000", "092438.387000", "092440.387000", "092442.387000", "092444.386000", "092446.387000", "092448.386000", "092450.386000", "092452.387000", "092454.387000", "092456.387000", "092458.387000", "092500.387000", "092502.387000", "092504.386000", "092506.386000", "092508.386000", "092510.387000", "092512.387000", "092514.388000", "092516.387000", "092518.386000", "092520.386000", "092522.386000", "092524.385000", "092526.386000", "092528.386000", "092530.385000", "092532.386000", "092534.386000", "092536.386000", "092538.386000", "092540.385000", "092542.385000", "092544.386000", "092546.386000", "092548.386000", "092550.386000", "092552.386000", "092554.386000", "092556.386000", "092558.385000", "092600.385000", "092602.386000", "092604.386000", "092606.386000", "092608.386000", "092610.387000", "092612.386000", "092614.387000", "092616.386000", "092618.386000", "092620.387000", "092622.387000", "092624.387000", "092626.387000", "092628.387000", "092630.387000", "092632.387000", "092634.386000", "092636.387000", "092638.387000", "092640.387000", "092642.387000", "092644.388000", "092646.387000", "092648.387000", "092650.386000", "092652.386000", "092654.388000", "092656.387000", "092658.387000", "092700.387000", "092702.388000", "092704.387000", "092706.387000", "092708.385000", "092710.386000", "092712.387000", "092714.387000", "092716.387000", "092718.387000", "092720.387000", "092722.388000", "092724.387000", "092726.387000", "092728.387000", "092730.388000", "092732.387000", "092734.387000", "092736.387000", "092738.387000", "092740.387000", "092742.387000", "092744.386000", "092746.387000", "092748.387000", "092750.387000", "092752.387000", "092754.387000", "092756.387000", "092758.387000", "092800.386000", "092802.387000", "092804.387000", "092806.387000", "092808.388000", "092810.387000", "092812.387000", "092814.387000", "092816.387000", "092818.386000", "092820.385000", "092822.388000", "092824.387000", "092826.387000", "092828.387000", "092830.387000", "092832.387000", "092834.387000", "092836.387000", "092838.387000", "092840.387000", "092842.387000", "092844.387000", "092846.387000", "092848.387000", "092850.387000", "092852.387000", "092854.387000", "092856.394000", "092858.387000", "092900.387000", "092902.387000", "092904.387000", "092906.387000", "092908.387000", "092910.386000", "092912.386000", "092914.387000", "092916.387000", "092918.387000", "092920.387000", "092922.387000", "092924.388000", "092926.387000", "092928.386000", "092930.387000", "092932.387000", "092934.387000", "092936.386000", "092938.387000", "092940.388000", "092942.387000", "092944.387000", "092946.386000", "092948.387000", "092950.388000", "092952.387000", "092954.387000", "092956.387000", "092958.387000", "093000.387000", "093002.387000", "093004.386000", "093005.935000"],
      "InstanceNumber": [1, 2, 3, 4, 5, 6, 7, 8, 9, 10, 11, 12, 13, 14, 15, 16, 17, 18, 19, 20, 21, 22, 23, 24, 25, 26, 27, 28, 29, 30, 31, 32, 33, 34, 35, 36, 37, 38, 39, 40, 41, 42, 43, 44, 45, 46, 47, 48, 49, 50, 51, 52, 53, 54, 55, 56, 57, 58, 59, 60, 61, 62, 63, 64, 65, 66, 67, 68, 69, 70, 71, 72, 73, 74, 75, 76, 77, 78, 79, 80, 81, 82, 83, 84, 85, 86, 87, 88, 89, 90, 91, 92, 93, 94, 95, 96, 97, 98, 99, 100, 101, 102, 103, 104, 105, 106, 107, 108, 109, 110, 111, 112, 113, 114, 115, 116, 117, 118, 119, 120, 121, 122, 123, 124, 125, 126, 127, 128, 129, 130, 131, 132, 133, 134, 135, 136, 137, 138, 139, 140, 141, 142, 143, 144, 145, 146, 147, 148, 149, 150, 151, 152, 153, 154, 155, 156, 157, 158, 159, 160, 161, 162, 163, 164, 165, 166, 167, 168, 169, 170, 171, 172, 173, 174, 175, 176, 177, 178, 179, 180, 181, 182, 183, 184, 185, 186, 187, 188, 189, 190, 191, 192, 193, 194, 195, 196, 197, 198, 199, 200, 201, 202, 203, 204, 205, 206, 207, 208, 209, 210, 211, 212, 213, 214, 215, 216, 217, 218, 219, 220, 221, 222, 223, 224, 225, 226, 227, 228, 229, 230, 231, 232, 233, 234, 235, 236, 237, 238, 239, 240, 241, 242, 243, 244, 245, 246, 247, 248, 249, 250, 251, 252, 253, 254, 255, 256, 257, 258, 259, 260, 261, 262, 263, 264, 265, 266, 267, 268, 269, 270, 271, 272, 273, 274, 275, 276, 277, 278, 279, 280, 281, 282, 283, 284, 285, 286, 287, 288, 289],
      "WindowCenter": [17293.0, 17278.0, 17278.0, 17286.0, 17277.0, 17260.0, 17266.0, 17259.0, 17238.0, 17255.0, 17255.0, 17256.0, 17257.0, 17245.0, 17234.0, 17228.0, 17236.0, 17253.0, 17265.0, 17271.0, 17232.0, 17249.0, 17239.0, 17246.0, 17251.0, 17242.0, 17240.0, 17262.0, 17259.0, 17271.0, 17264.0, 17250.0, 17255.0, 17255.0, 17260.0, 17267.0, 17257.0, 17255.0, 17277.0, 17282.0, 17276.0, 17266.0, 17265.0, 17254.0, 17265.0, 17253.0, 17253.0, 17273.0, 17259.0, 17258.0, 17258.0, 17250.0, 17257.0, 17254.0, 17262.0, 17250.0, 17266.0, 17283.0, 17263.0, 17269.0, 17288.0, 17275.0, 17255.0, 17261.0, 17271.0, 17277.0, 17284.0, 17270.0, 17256.0, 17272.0, 17264.0, 17266.0, 17273.0, 17285.0, 17276.0, 17265.0, 17267.0, 17253.0, 17257.0, 17256.0, 17274.0, 17269.0, 17267.0, 17266.0, 17261.0, 17259.0, 17267.0, 17253.0, 17267.0, 17279.0, 17268.0, 17282.0, 17251.0, 17259.0, 17261.0, 17254.0, 17275.0, 17255.0, 17270.0, 17262.0, 17252.0, 17260.0, 17245.0, 17263.0, 17254.0, 17264.0, 17269.0, 17279.0, 17299.0, 17303.0, 17257.0, 17287.0, 17283.0, 17286.0, 17287.0, 17297.0, 17284.0, 17267.0, 17266.0, 17267.0, 17266.0, 17281.0, 17273.0, 17278.0, 17260.0, 17269.0, 17276.0, 17258.0, 17260.0, 17259.0, 17284.0, 17281.0, 17282.0, 17257.0, 17270.0, 17263.0, 17268.0, 17241.0, 17269.0, 17240.0, 17259.0, 17255.0, 17267.0, 17284.0, 17292.0, 17266.0, 17270.0, 17260.0, 17260.0, 17272.0, 17274.0, 17266.0, 17269.0, 17276.0, 17262.0, 17270.0, 17275.0, 17274.0, 17253.0, 17260.0, 17257.0, 17275.0, 17277.0, 17268.0, 17288.0, 17274.0, 17293.0, 17272.0, 17269.0, 17268.0, 17267.0, 17284.0, 17268.0, 17276.0, 17287.0, 17300.0, 17279.0, 17273.0, 17285.0, 17276.0, 17283.0, 17284.0, 17288.0, 17289.0, 17276.0, 17277.0, 17297.0, 17282.0, 17295.0, 17315.0, 17295.0, 17303.0, 17277.0, 17285.0, 17283.0, 17301.0, 17253.0, 17291.0, 17294.0, 17288.0, 17273.0, 17278.0, 17274.0, 17275.0, 17287.0, 17292.0, 17330.0, 17321.0, 17307.0, 17304.0, 17269.0, 17287.0, 17287.0, 17291.0, 17291.0, 17300.0, 17302.0, 17289.0, 17275.0, 17283.0, 17313.0, 17310.0, 17315.0, 17305.0, 17329.0, 17323.0, 17312.0, 17303.0, 17288.0, 17303.0, 17308.0, 17302.0, 17298.0, 17290.0, 17296.0, 17294.0, 17291.0, 17285.0, 17286.0, 17283.0, 17277.0, 17249.0, 17278.0, 17275.0, 17289.0, 17294.0, 17271.0, 17280.0, 17295.0, 17289.0, 17274.0, 17288.0, 17296.0, 17267.0, 17267.0, 17283.0, 17283.0, 17313.0, 17282.0, 17279.0, 17289.0, 17293.0, 17287.0, 17287.0, 17292.0, 17261.0, 17265.0, 17265.0, 17252.0, 17249.0, 17269.0, 17255.0, 17264.0, 17266.0, 17259.0, 17255.0, 17265.0, 17263.0, 17274.0, 17286.0, 17279.0, 17258.0, 17265.0, 17295.0, 17288.0, 17262.0, 17255.0, 17278.0, 17273.0],
      "WindowWidth": [48573.0, 48489.0, 48503.0, 48517.0, 48473.0, 48399.0, 48366.0, 48348.0, 48435.0, 48447.0, 48472.0, 48500.0, 48522.0, 48438.0, 48342.0, 48300.0, 48307.0, 48357.0, 48415.0, 48392.0, 48392.0, 48340.0, 48348.0, 48391.0, 48405.0, 48361.0, 48335.0, 48325.0, 48349.0, 48357.0, 48365.0, 48343.0, 48347.0, 48357.0, 48348.0, 48378.0, 48371.0, 48397.0, 48435.0, 48438.0, 48385.0, 48418.0, 48455.0, 48459.0, 48427.0, 48369.0, 48382.0, 48408.0, 48451.0, 48448.0, 48424.0, 48395.0, 48398.0, 48409.0, 48401.0, 48381.0, 48380.0, 48389.0, 48377.0, 48369.0, 48357.0, 48360.0, 48347.0, 48339.0, 48371.0, 48400.0, 48403.0, 48382.0, 48398.0, 48370.0, 48353.0, 48367.0, 48398.0, 48418.0, 48448.0, 48402.0, 48328.0, 48333.0, 48360.0, 48397.0, 48446.0, 48431.0, 48405.0, 48416.0, 48402.0, 48414.0, 48419.0, 48410.0, 48393.0, 48404.0, 48432.0, 48402.0, 48345.0, 48299.0, 48311.0, 48359.0, 48385.0, 48397.0, 48407.0, 48376.0, 48331.0, 48326.0, 48378.0, 48389.0, 48383.0, 48389.0, 48357.0, 48393.0, 48479.0, 48443.0, 48402.0, 48343.0, 48341.0, 48382.0, 48393.0, 48362.0, 48327.0, 48303.0, 48291.0, 48342.0, 48381.0, 48390.0, 48373.0, 48338.0, 48312.0, 48307.0, 48336.0, 48348.0, 48349.0, 48375.0, 48366.0, 48365.0, 48352.0, 48397.0, 48395.0, 48401.0, 48341.0, 48350.0, 48342.0, 48361.0, 48361.0, 48348.0, 48355.0, 48432.0, 48473.0, 48428.0, 48318.0, 48298.0, 48299.0, 48320.0, 48347.0, 48367.0, 48344.0, 48333.0, 48300.0, 48310.0, 48339.0, 48324.0, 48311.0, 48314.0, 48326.0, 48349.0, 48351.0, 48369.0, 48358.0, 48387.0, 48376.0, 48439.0, 48434.0, 48357.0, 48344.0, 48354.0, 48370.0, 48413.0, 48460.0, 48442.0, 48427.0, 48375.0, 48356.0, 48353.0, 48433.0, 48445.0, 48423.0, 48383.0, 48350.0, 48376.0, 48401.0, 48378.0, 48388.0, 48414.0, 48439.0, 48430.0, 48403.0, 48395.0, 48393.0, 48340.0, 48335.0, 48337.0, 48376.0, 48382.0, 48385.0, 48324.0, 48284.0, 48284.0, 48343.0, 48424.0, 48415.0, 48457.0, 48408.0, 48369.0, 48359.0, 48357.0, 48370.0, 48334.0, 48309.0, 48327.0, 48353.0, 48343.0, 48361.0, 48379.0, 48387.0, 48425.0, 48430.0, 48499.0, 48589.0, 48558.0, 48500.0, 48482.0, 48484.0, 48470.0, 48508.0, 48456.0, 48352.0, 48337.0, 48353.0, 48374.0, 48385.0, 48394.0, 48345.0, 48342.0, 48313.0, 48247.0, 48378.0, 48388.0, 48372.0, 48325.0, 48322.0, 48340.0, 48363.0, 48333.0, 48299.0, 48283.0, 48276.0, 48268.0, 48268.0, 48291.0, 48317.0, 48339.0, 48356.0, 48329.0, 48336.0, 48326.0, 48348.0, 48362.0, 48336.0, 48300.0, 48265.0, 48252.0, 48256.0, 48280.0, 48293.0, 48283.0, 48252.0, 48277.0, 48260.0, 48286.0, 48291.0, 48277.0, 48310.0, 48320.0, 48339.0, 48163.0, 48219.0, 48288.0, 48282.0, 48240.0, 48222.0, 48226.0, 48273.0]
    },
    "slices": {}
  }
}