{
  "AcquisitionMatrixPE": 116,
  "AcquisitionNumber": 1,
  "AcquisitionTime": "11:37:9.102500",
  "BandwidthPerPixelPhaseEncode": 18.539,
  "BaseResolution": 116,
  "BodyPartExamined": "HEAD",
  "ConsistencyInfo": "N4_VD13D_LATEST_20130810",
  "ConversionSoftware": "dcm2niix",
  "ConversionSoftwareVersion": "v1.0.20190410  (JP2:OpenJPEG) (JP-LS:CharLS) GCC5.5.0",
  "DerivedVendorReportedEchoSpacing": 0.000930006,
  "DeviceSerialNumber": "66014",
  "DwellTime": 3e-06,
  "EchoTime": 0.03,
  "EchoTrainLength": 50,
  "EffectiveEchoSpacing": 0.000465003,
  "FlipAngle": 81,
  "ImageComments": "Unaliased_MB3_PE4",
  "ImageOrientationPatientDICOM": [0.99665, 0.0808215, 0.0125499, -0.0801885, 0.995779, -0.0446607],
  "ImageType": [
    "ORIGINAL",
    "PRIMARY",
    "M",
    "MB",
    "ND",
    "MOSAIC"
],
  "ImagingFrequency": 123.261,
  "InPlanePhaseEncodingDirectionDICOM": "COL",
  "InstitutionAddress": "Yiheyuan_Road_5_Beijing_Haidian_CN_100871",
  "InstitutionName": "Peking_Univeristy",
  "InstitutionalDepartmentName": "Department",
  "MRAcquisitionType": "2D",
  "MagneticFieldStrength": 3,
  "Manufacturer": "Siemens",
  "ManufacturersModelName": "Prisma",
  "Modality": "MR",
  "MultibandAccelerationFactor": 3,
  "ParallelReductionFactorInPlane": 2,
  "PartialFourier": 0.875,
  "PatientPosition": "HFS",
  "PercentPhaseFOV": 100,
  "PhaseEncodingDirection": "j-",
  "PhaseEncodingSteps": 101,
  "PhaseResolution": 1,
  "PixelBandwidth": 1435,
  "ProcedureStepDescription": "Research_Projects_64CH",
  "ProtocolName": "mbep2d_bold_MB3_learn4",
  "PulseSequenceDetails": "%CustomerSeq%_cmrr_mbep2d_bold",
  "ReceiveCoilActiveElements": "HC1-6",
  "ReceiveCoilName": "HeadNeck_64",
  "ReconMatrixPE": 116,
  "RefLinesPE": 44,
  "RepetitionTime": 2,
  "SAR": 0.0623041,
  "ScanOptions": "PFP_FS",
  "ScanningSequence": "EP",
  "SequenceName": "epfid2d1_116",
  "SequenceVariant": "SK_SS",
  "SeriesDescription": "mbep2d_bold_MB3_learn4",
  "SeriesNumber": 9,
  "ShimSetting": [-3454, -2113, -1956, 318, -42, -367, -57, -20],
  "SliceThickness": 1.9,
  "SliceTiming": [0, 0.9075, 1.815, 0.7425, 1.65, 0.5775, 1.485, 0.4125, 1.32, 0.2475, 1.155, 0.0825, 0.99, 1.8975, 0.825, 1.7325, 0.66, 1.5675, 0.495, 1.4025, 0.33, 1.2375, 0.165, 1.0725, 0, 0.9075, 1.815, 0.7425, 1.65, 0.5775, 1.485, 0.4125, 1.32, 0.2475, 1.155, 0.0825, 0.99, 1.8975, 0.825, 1.7325, 0.66, 1.5675, 0.495, 1.4025, 0.33, 1.2375, 0.165, 1.0725, 0, 0.9075, 1.815, 0.7425, 1.65, 0.5775, 1.485, 0.4125, 1.32, 0.2475, 1.155, 0.0825, 0.99, 1.8975, 0.825, 1.7325, 0.66, 1.5675, 0.495, 1.4025, 0.33, 1.2375, 0.165, 1.0725],
  "SoftwareVersions": "syngo_MR_D13D",
  "SpacingBetweenSlices": 1.9,
  "StationName": "AWP66014",
  "TaskName": "updating",
  "TotalReadoutTime": 0.0534753,
  "TxRefAmp": 226.519,
  "WipMemBlock": "9299676f-0b37-4ba2-846c-eeb31fbd986d||Sequence: vd13d/master r/0735857; Nov 19 2014 09:21:40 by eja",
  "dcmmeta_affine": [
    [-1.890197515487671, -0.1520816832780838, 0.03060225024819374, 117.34014892578125],
    [-0.15328218042850494, 1.8885458707809448, -0.08265901356935501, -83.5027847290039],
    [0.023801490664482117, 0.08470139652490616, 1.8979543447494507, -63.002593994140625],
    [0.0, 0.0, 0.0, 1.0]
],
  "dcmmeta_reorient_transform": [
    [0.0, -1.0, 0.0, 115.0],
    [1.0, 0.0, 0.0, 0.0],
    [0.0, 0.0, 1.0, 0.0],
    [0.0, 0.0, 0.0, 1.0]
],
  "dcmmeta_shape": [116, 116, 72, 218],
  "dcmmeta_slice_dim": 2,
  "dcmmeta_version": 0.6,
  "global": {
    "const": {
      "AcquisitionMatrix": [116, 0, 0, 116],
      "AngioFlag": "N",
      "BitsAllocated": 16,
      "BitsStored": 16,
      "BodyPartExamined": "HEAD",
      "Columns": 1044,
      "EchoNumbers": 1,
      "EchoTime": 30.0,
      "EchoTrainLength": 50,
      "FlipAngle": 81.0,
      "HighBit": 15,
      "ImageOrientationPatient": [0.99664957898998, 0.08082151503105, 0.01254987677966, -0.0801885217677, 0.99577870016796, -0.044660735199],
      "ImagePositionPatient": [-906.33648839434, -1081.0881731056, -25.004378513895],
      "ImageType": [
        "ORIGINAL",
        "PRIMARY",
        "M",
        "MB",
        "ND",
        "MOSAIC"
],
      "ImagedNucleus": "1H",
      "ImagingFrequency": 123.260535,
      "InPlanePhaseEncodingDirection": "COL",
      "LargestImagePixelValue": 65535,
      "MRAcquisitionType": "2D",
      "MagneticFieldStrength": 3.0,
      "Manufacturer": "SIEMENS",
      "ManufacturerModelName": "Prisma",
      "Modality": "MR",
      "NumberOfAverages": 1.0,
      "NumberOfPhaseEncodingSteps": 101,
      "PercentPhaseFieldOfView": 100.0,
      "PercentSampling": 100.0,
      "PerformedProcedureStepStartTime": "104824.082000",
      "PhotometricInterpretation": "MONOCHROME2",
      "PixelBandwidth": 1435.0,
      "PixelRepresentation": 0,
      "PixelSpacing": [1.8965517282486, 1.8965517282486],
      "ProtocolName": "mbep2d_bold_MB3_learn4",
      "RepetitionTime": 2000.0,
      "Rows": 1044,
      "SAR": 0.06230414667253,
      "SamplesPerPixel": 1,
      "ScanOptions": [
        "PFP",
        "FS"
],
      "ScanningSequence": "EP",
      "SequenceName": "epfid2d1_116",
      "SequenceVariant": [
        "SK",
        "SS"
],
      "SeriesDescription": "mbep2d_bold_MB3_learn4",
      "SeriesNumber": 9,
      "SeriesTime": "113720.398000",
      "SliceLocation": -57.412063849716,
      "SliceThickness": 1.8999999761581,
      "SmallestImagePixelValue": 0,
      "SoftwareVersions": "syngo MR D13D",
      "SpacingBetweenSlices": 1.8999999546958,
      "SpecificCharacterSet": "ISO_IR 100",
      "StudyID": "1",
      "StudyTime": "104823.986000",
      "TimeOfLastCalibration": ["123723.000000", "123723.000000"],
      "TransmitCoilName": "Body",
      "VariableFlipAngleFlag": "N",
      "WindowCenterWidthExplanation": "Algo1",
      "dBdt": 0.0},
    "slices": {}
  },
  "time": {
    "samples": {
      "AcquisitionNumber": [1, 2, 3, 4, 5, 6, 7, 8, 9, 10, 11, 12, 13, 14, 15, 16, 17, 18, 19, 20, 21, 22, 23, 24, 25, 26, 27, 28, 29, 30, 31, 32, 33, 34, 35, 36, 37, 38, 39, 40, 41, 42, 43, 44, 45, 46, 47, 48, 49, 50, 51, 52, 53, 54, 55, 56, 57, 58, 59, 60, 61, 62, 63, 64, 65, 66, 67, 68, 69, 70, 71, 72, 73, 74, 75, 76, 77, 78, 79, 80, 81, 82, 83, 84, 85, 86, 87, 88, 89, 90, 91, 92, 93, 94, 95, 96, 97, 98, 99, 100, 101, 102, 103, 104, 105, 106, 107, 108, 109, 110, 111, 112, 113, 114, 115, 116, 117, 118, 119, 120, 121, 122, 123, 124, 125, 126, 127, 128, 129, 130, 131, 132, 133, 134, 135, 136, 137, 138, 139, 140, 141, 142, 143, 144, 145, 146, 147, 148, 149, 150, 151, 152, 153, 154, 155, 156, 157, 158, 159, 160, 161, 162, 163, 164, 165, 166, 167, 168, 169, 170, 171, 172, 173, 174, 175, 176, 177, 178, 179, 180, 181, 182, 183, 184, 185, 186, 187, 188, 189, 190, 191, 192, 193, 194, 195, 196, 197, 198, 199, 200, 201, 202, 203, 204, 205, 206, 207, 208, 209, 210, 211, 212, 213, 214, 215, 216, 217, 218],
      "AcquisitionTime": ["113709.102500", "113711.102500", "113713.102500", "113715.102500", "113717.102500", "113719.102500", "113721.102500", "113723.102500", "113725.102500", "113727.102500", "113729.102500", "113731.102500", "113733.102500", "113735.102500", "113737.102500", "113739.102500", "113741.102500", "113743.102500", "113745.102500", "113747.102500", "113749.102500", "113751.102500", "113753.102500", "113755.102500", "113757.102500", "113759.102500", "113801.102500", "113803.102500", "113805.102500", "113807.102500", "113809.102500", "113811.102500", "113813.102500", "113815.102500", "113817.102500", "113819.102500", "113821.102500", "113823.102500", "113825.102500", "113827.102500", "113829.102500", "113831.102500", "113833.102500", "113835.102500", "113837.102500", "113839.102500", "113841.102500", "113843.102500", "113845.102500", "113847.102500", "113849.102500", "113851.102500", "113853.102500", "113855.102500", "113857.102500", "113859.102500", "113901.102500", "113903.102500", "113905.102500", "113907.102500", "113909.102500", "113911.105000", "113913.105000", "113915.105000", "113917.105000", "113919.105000", "113921.105000", "113923.105000", "113925.105000", "113927.105000", "113929.105000", "113931.105000", "113933.105000", "113935.105000", "113937.105000", "113939.105000", "113941.105000", "113943.105000", "113945.105000", "113947.105000", "113949.105000", "113951.105000", "113953.105000", "113955.105000", "113957.105000", "113959.105000", "114001.105000", "114003.105000", "114005.105000", "114007.105000", "114009.105000", "114011.105000", "114013.105000", "114015.105000", "114017.105000", "114019.105000", "114021.105000", "114023.105000", "114025.105000", "114027.105000", "114029.105000", "114031.105000", "114033.105000", "114035.105000", "114037.105000", "114039.105000", "114041.105000", "114043.105000", "114045.105000", "114047.105000", "114049.105000", "114051.105000", "114053.105000", "114055.105000", "114057.105000", "114059.105000", "114101.105000", "114103.105000", "114105.105000", "114107.105000", "114109.105000", "114111.105000", "114113.105000", "114115.105000", "114117.105000", "114119.105000", "114121.105000", "114123.105000", "114125.105000", "114127.105000", "114129.105000", "114131.105000", "114133.105000", "114135.105000", "114137.105000", "114139.105000", "114141.105000", "114143.105000", "114145.105000", "114147.105000", "114149.105000", "114151.105000", "114153.105000", "114155.105000", "114157.105000", "114159.105000", "114201.105000", "114203.105000", "114205.105000", "114207.105000", "114209.105000", "114211.105000", "114213.105000", "114215.105000", "114217.105000", "114219.105000", "114221.105000", "114223.105000", "114225.105000", "114227.105000", "114229.105000", "114231.105000", "114233.105000", "114235.105000", "114237.105000", "114239.105000", "114241.105000", "114243.105000", "114245.105000", "114247.105000", "114249.105000", "114251.105000", "114253.105000", "114255.105000", "114257.105000", "114259.105000", "114301.105000", "114303.105000", "114305.105000", "114307.105000", "114309.105000", "114311.105000", "114313.105000", "114315.105000", "114317.105000", "114319.105000", "114321.105000", "114323.105000", "114325.105000", "114327.105000", "114329.105000", "114331.105000", "114333.105000", "114335.105000", "114337.105000", "114339.105000", "114341.105000", "114343.105000", "114345.105000", "114347.105000", "114349.105000", "114351.105000", "114353.105000", "114355.105000", "114357.105000", "114359.105000", "114401.105000", "114403.105000", "114405.105000", "114407.105000", "114409.105000", "114411.105000", "114413.105000", "114415.105000", "114417.105000", "114419.105000", "114421.105000", "114423.105000"],
      "ContentTime": ["113720.403000", "113722.397000", "113722.402000", "113722.405000", "113722.409000", "113725.897000", "113725.929000", "113727.896000", "113728.896000", "113730.397000", "113732.397000", "113734.397000", "113736.397000", "113738.397000", "113740.397000", "113742.397000", "113744.397000", "113746.397000", "113748.397000", "113750.397000", "113752.397000", "113754.397000", "113756.397000", "113758.397000", "113800.397000", "113802.397000", "113804.397000", "113806.397000", "113808.397000", "113810.397000", "113812.397000", "113814.397000", "113816.397000", "113818.397000", "113820.397000", "113822.397000", "113824.397000", "113826.397000", "113828.398000", "113830.397000", "113832.397000", "113834.397000", "113836.397000", "113838.397000", "113840.398000", "113842.397000", "113844.395000", "113846.397000", "113848.397000", "113850.397000", "113852.397000", "113854.397000", "113856.397000", "113858.398000", "113900.397000", "113902.397000", "113904.397000", "113906.397000", "113908.396000", "113910.397000", "113912.395000", "113914.397000", "113916.397000", "113918.395000", "113920.397000", "113922.397000", "113924.403000", "113926.397000", "113928.397000", "113930.398000", "113932.395000", "113934.398000", "113936.397000", "113938.397000", "113940.397000", "113942.398000", "113944.397000", "113946.397000", "113948.397000", "113950.397000", "113952.397000", "113954.397000", "113956.397000", "113958.397000", "114000.397000", "114002.397000", "114004.397000", "114006.397000", "114008.397000", "114010.397000", "114012.397000", "114014.397000", "114016.397000", "114018.397000", "114020.397000", "114022.398000", "114024.397000", "114026.397000", "114028.397000", "114030.397000", "114032.397000", "114034.397000", "114036.397000", "114038.397000", "114040.397000", "114042.397000", "114044.398000", "114046.397000", "114048.397000", "114050.397000", "114052.397000", "114054.397000", "114056.397000", "114058.397000", "114100.396000", "114102.397000", "114104.397000", "114106.397000", "114108.397000", "114110.397000", "114112.395000", "114114.397000", "114116.397000", "114118.397000", "114120.397000", "114122.397000", "114124.397000", "114126.397000", "114128.397000", "114130.397000", "114132.397000", "114134.397000", "114136.397000", "114138.397000", "114140.398000", "114142.399000", "114144.396000", "114146.397000", "114148.397000", "114150.397000", "114152.398000", "114154.397000", "114156.397000", "114158.397000", "114200.397000", "114202.399000", "114204.397000", "114206.397000", "114208.397000", "114210.397000", "114212.397000", "114214.397000", "114216.397000", "114218.397000", "114220.397000", "114222.397000", "114224.397000", "114226.397000", "114228.397000", "114230.397000", "114232.396000", "114234.397000", "114236.397000", "114238.397000", "114240.397000", "114242.396000", "114244.397000", "114246.397000", "114248.397000", "114250.397000", "114252.397000", "114254.397000", "114256.397000", "114258.397000", "114300.397000", "114302.397000", "114304.398000", "114306.397000", "114308.397000", "114310.397000", "114312.397000", "114314.397000", "114316.397000", "114318.397000", "114320.397000", "114322.397000", "114324.397000", "114326.397000", "114328.398000", "114330.397000", "114332.397000", "114334.397000", "114336.397000", "114338.396000", "114340.397000", "114342.397000", "114344.397000", "114346.398000", "114348.400000", "114350.401000", "114352.399000", "114354.400000", "114356.397000", "114358.397000", "114400.397000", "114402.397000", "114404.397000", "114406.396000", "114408.397000", "114410.397000", "114412.397000", "114414.396000", "114416.397000", "114418.397000", "114420.397000", "114422.397000", "114424.397000", "114425.883000"],
      "InstanceCreationTime": ["113720.403000", "113722.397000", "113722.402000", "113722.405000", "113722.409000", "113725.897000", "113725.929000", "113727.896000", "113728.896000", "113730.397000", "113732.397000", "113734.397000", "113736.397000", "113738.397000", "113740.397000", "113742.397000", "113744.397000", "113746.397000", "113748.397000", "113750.397000", "113752.397000", "113754.397000", "113756.397000", "113758.397000", "113800.397000", "113802.397000", "113804.397000", "113806.397000", "113808.397000", "113810.397000", "113812.397000", "113814.397000", "113816.397000", "113818.397000", "113820.397000", "113822.397000", "113824.397000", "113826.397000", "113828.398000", "113830.397000", "113832.397000", "113834.397000", "113836.397000", "113838.397000", "113840.398000", "113842.397000", "113844.395000", "113846.397000", "113848.397000", "113850.397000", "113852.397000", "113854.397000", "113856.397000", "113858.398000", "113900.397000", "113902.397000", "113904.397000", "113906.397000", "113908.396000", "113910.397000", "113912.395000", "113914.397000", "113916.397000", "113918.395000", "113920.397000", "113922.397000", "113924.403000", "113926.397000", "113928.397000", "113930.398000", "113932.395000", "113934.398000", "113936.397000", "113938.397000", "113940.397000", "113942.398000", "113944.397000", "113946.397000", "113948.397000", "113950.397000", "113952.397000", "113954.397000", "113956.397000", "113958.397000", "114000.397000", "114002.397000", "114004.397000", "114006.397000", "114008.397000", "114010.397000", "114012.397000", "114014.397000", "114016.397000", "114018.397000", "114020.397000", "114022.398000", "114024.397000", "114026.397000", "114028.397000", "114030.397000", "114032.397000", "114034.397000", "114036.397000", "114038.397000", "114040.397000", "114042.397000", "114044.398000", "114046.397000", "114048.397000", "114050.397000", "114052.397000", "114054.397000", "114056.397000", "114058.397000", "114100.396000", "114102.397000", "114104.397000", "114106.397000", "114108.397000", "114110.397000", "114112.395000", "114114.397000", "114116.397000", "114118.397000", "114120.397000", "114122.397000", "114124.397000", "114126.397000", "114128.397000", "114130.397000", "114132.397000", "114134.397000", "114136.397000", "114138.397000", "114140.398000", "114142.399000", "114144.396000", "114146.397000", "114148.397000", "114150.397000", "114152.398000", "114154.397000", "114156.397000", "114158.397000", "114200.397000", "114202.399000", "114204.397000", "114206.397000", "114208.397000", "114210.397000", "114212.397000", "114214.397000", "114216.397000", "114218.397000", "114220.397000", "114222.397000", "114224.397000", "114226.397000", "114228.397000", "114230.397000", "114232.396000", "114234.397000", "114236.397000", "114238.397000", "114240.397000", "114242.396000", "114244.397000", "114246.397000", "114248.397000", "114250.397000", "114252.397000", "114254.397000", "114256.397000", "114258.397000", "114300.397000", "114302.397000", "114304.398000", "114306.397000", "114308.397000", "114310.397000", "114312.397000", "114314.397000", "114316.397000", "114318.397000", "114320.397000", "114322.397000", "114324.397000", "114326.397000", "114328.398000", "114330.397000", "114332.397000", "114334.397000", "114336.397000", "114338.396000", "114340.397000", "114342.397000", "114344.397000", "114346.398000", "114348.400000", "114350.401000", "114352.399000", "114354.400000", "114356.397000", "114358.397000", "114400.397000", "114402.397000", "114404.397000", "114406.396000", "114408.397000", "114410.397000", "114412.397000", "114414.396000", "114416.397000", "114418.397000", "114420.397000", "114422.397000", "114424.397000", "114425.883000"],
      "InstanceNumber": [1, 2, 3, 4, 5, 6, 7, 8, 9, 10, 11, 12, 13, 14, 15, 16, 17, 18, 19, 20, 21, 22, 23, 24, 25, 26, 27, 28, 29, 30, 31, 32, 33, 34, 35, 36, 37, 38, 39, 40, 41, 42, 43, 44, 45, 46, 47, 48, 49, 50, 51, 52, 53, 54, 55, 56, 57, 58, 59, 60, 61, 62, 63, 64, 65, 66, 67, 68, 69, 70, 71, 72, 73, 74, 75, 76, 77, 78, 79, 80, 81, 82, 83, 84, 85, 86, 87, 88, 89, 90, 91, 92, 93, 94, 95, 96, 97, 98, 99, 100, 101, 102, 103, 104, 105, 106, 107, 108, 109, 110, 111, 112, 113, 114, 115, 116, 117, 118, 119, 120, 121, 122, 123, 124, 125, 126, 127, 128, 129, 130, 131, 132, 133, 134, 135, 136, 137, 138, 139, 140, 141, 142, 143, 144, 145, 146, 147, 148, 149, 150, 151, 152, 153, 154, 155, 156, 157, 158, 159, 160, 161, 162, 163, 164, 165, 166, 167, 168, 169, 170, 171, 172, 173, 174, 175, 176, 177, 178, 179, 180, 181, 182, 183, 184, 185, 186, 187, 188, 189, 190, 191, 192, 193, 194, 195, 196, 197, 198, 199, 200, 201, 202, 203, 204, 205, 206, 207, 208, 209, 210, 211, 212, 213, 214, 215, 216, 217, 218],
      "WindowCenter": [18318.0, 18294.0, 18244.0, 18235.0, 18240.0, 18250.0, 18248.0, 18232.0, 18228.0, 18256.0, 18270.0, 18270.0, 18273.0, 18247.0, 18253.0, 18266.0, 18262.0, 18261.0, 18247.0, 18233.0, 18245.0, 18260.0, 18287.0, 18303.0, 18326.0, 18310.0, 18290.0, 18258.0, 18252.0, 18247.0, 18252.0, 18262.0, 18273.0, 18241.0, 18215.0, 18233.0, 18204.0, 18230.0, 18254.0, 18247.0, 18224.0, 18248.0, 18252.0, 18313.0, 18320.0, 18302.0, 18315.0, 18289.0, 18283.0, 18290.0, 18301.0, 18304.0, 18288.0, 18271.0, 18276.0, 18241.0, 18290.0, 18285.0, 18229.0, 18177.0, 18143.0, 18119.0, 18108.0, 18133.0, 18141.0, 18158.0, 18193.0, 18205.0, 18203.0, 18228.0, 18222.0, 18207.0, 18221.0, 18245.0, 18263.0, 18278.0, 18282.0, 18256.0, 18215.0, 18202.0, 18224.0, 18240.0, 18241.0, 18241.0, 18259.0, 18250.0, 18251.0, 18236.0, 18261.0, 18250.0, 18282.0, 18276.0, 18265.0, 18244.0, 18230.0, 18216.0, 18244.0, 18262.0, 18296.0, 18318.0, 18301.0, 18297.0, 18289.0, 18281.0, 18255.0, 18272.0, 18233.0, 18241.0, 18252.0, 18247.0, 18256.0, 18266.0, 18275.0, 18334.0, 18345.0, 18331.0, 18330.0, 18289.0, 18283.0, 18288.0, 18294.0, 18285.0, 18268.0, 18318.0, 18291.0, 18277.0, 18269.0, 18283.0, 18321.0, 18326.0, 18332.0, 18316.0, 18302.0, 18317.0, 18326.0, 18312.0, 18303.0, 18292.0, 18316.0, 18317.0, 18301.0, 18300.0, 18299.0, 18349.0, 18374.0, 18330.0, 18294.0, 18287.0, 18262.0, 18243.0, 18256.0, 18282.0, 18253.0, 18263.0, 18240.0, 18251.0, 18264.0, 18266.0, 18296.0, 18292.0, 18314.0, 18329.0, 18304.0, 18308.0, 18305.0, 18286.0, 18250.0, 18228.0, 18216.0, 18182.0, 18223.0, 18208.0, 18191.0, 18199.0, 18234.0, 18231.0, 18251.0, 18292.0, 18286.0, 18278.0, 18278.0, 18268.0, 18263.0, 18253.0, 18245.0, 18228.0, 18225.0, 18216.0, 18239.0, 18249.0, 18249.0, 18252.0, 18254.0, 18243.0, 18255.0, 18201.0, 18158.0, 18166.0, 18170.0, 18175.0, 18225.0, 18260.0, 18259.0, 18261.0, 18260.0, 18276.0, 18269.0, 18252.0, 18270.0, 18272.0, 18281.0, 18289.0, 18296.0, 18338.0, 18259.0, 18217.0, 18200.0, 18202.0],
      "WindowWidth": [47777.0, 47637.0, 47527.0, 47484.0, 47501.0, 47520.0, 47544.0, 47570.0, 47553.0, 47625.0, 47645.0, 47632.0, 47599.0, 47555.0, 47548.0, 47619.0, 47613.0, 47612.0, 47555.0, 47520.0, 47552.0, 47599.0, 47721.0, 47757.0, 47786.0, 47763.0, 47635.0, 47560.0, 47469.0, 47530.0, 47534.0, 47539.0, 47547.0, 47473.0, 47456.0, 47446.0, 47327.0, 47407.0, 47497.0, 47414.0, 47399.0, 47429.0, 47545.0, 47651.0, 47691.0, 47677.0, 47651.0, 47670.0, 47602.0, 47648.0, 47656.0, 47646.0, 47621.0, 47582.0, 47538.0, 47453.0, 47597.0, 47555.0, 47439.0, 47263.0, 47080.0, 47087.0, 47030.0, 47086.0, 47142.0, 47241.0, 47315.0, 47424.0, 47422.0, 47429.0, 47438.0, 47461.0, 47484.0, 47539.0, 47612.0, 47648.0, 47664.0, 47520.0, 47391.0, 47422.0, 47475.0, 47561.0, 47561.0, 47586.0, 47575.0, 47555.0, 47517.0, 47545.0, 47535.0, 47539.0, 47591.0, 47585.0, 47527.0, 47451.0, 47416.0, 47445.0, 47502.0, 47566.0, 47640.0, 47668.0, 47684.0, 47653.0, 47608.0, 47564.0, 47571.0, 47560.0, 47519.0, 47513.0, 47545.0, 47552.0, 47547.0, 47569.0, 47650.0, 47754.0, 47823.0, 47802.0, 47776.0, 47697.0, 47629.0, 47634.0, 47687.0, 47655.0, 47571.0, 47729.0, 47674.0, 47639.0, 47633.0, 47645.0, 47759.0, 47811.0, 47778.0, 47741.0, 47707.0, 47768.0, 47748.0, 47702.0, 47657.0, 47662.0, 47691.0, 47718.0, 47719.0, 47695.0, 47693.0, 47780.0, 47834.0, 47751.0, 47686.0, 47581.0, 47502.0, 47465.0, 47537.0, 47527.0, 47494.0, 47498.0, 47419.0, 47417.0, 47426.0, 47513.0, 47582.0, 47565.0, 47620.0, 47694.0, 47688.0, 47679.0, 47678.0, 47612.0, 47512.0, 47436.0, 47392.0, 47259.0, 47412.0, 47347.0, 47333.0, 47353.0, 47439.0, 47438.0, 47542.0, 47657.0, 47628.0, 47598.0, 47624.0, 47564.0, 47549.0, 47581.0, 47486.0, 47452.0, 47447.0, 47429.0, 47469.0, 47503.0, 47524.0, 47540.0, 47542.0, 47535.0, 47520.0, 47391.0, 47283.0, 47230.0, 47260.0, 47317.0, 47440.0, 47577.0, 47624.0, 47588.0, 47588.0, 47623.0, 47643.0, 47630.0, 47642.0, 47645.0, 47640.0, 47621.0, 47639.0, 47702.0, 47584.0, 47417.0, 47332.0, 47335.0]
    },
    "slices": {}
  }
}